#
#"Frequency / GHz","S1,6 [Magnitude in dB]"
#------------------------------------------
1.0000000000000,-23.275803421223
1.0019999742508,-23.317753182873
1.0039999485016,-23.362206432371
1.0060000419617,-23.408969804815
1.0080000162125,-23.457846786928
1.0099999904633,-23.508639629145
1.0119999647141,-23.561145136788
1.0140000581741,-23.615162094027
1.0160000324249,-23.670489433658
1.0180000066757,-23.726923593558
1.0199999809265,-23.784268755714
1.0219999551773,-23.842331377849
1.0240000486374,-23.900919062943
1.0260000228882,-23.959852177237
1.0279999971390,-24.018955826002
1.0299999713898,-24.078064381208
1.0319999456406,-24.137024916851
1.0340000391006,-24.195695024718
1.0360000133514,-24.253943467370
1.0379999876022,-24.311655139557
1.0399999618530,-24.368728192434
1.0420000553131,-24.425075404557
1.0440000295639,-24.480624190034
1.0460000038147,-24.535318759779
1.0479999780655,-24.589116742773
1.0499999523163,-24.641991886791
1.0520000457764,-24.693929120997
1.0540000200272,-24.744930338094
1.0559999942780,-24.795007794007
1.0579999685287,-24.844185000812
1.0599999427795,-24.892494734468
1.0620000362396,-24.939980213735
1.0640000104904,-24.986689445683
1.0659999847412,-25.032678556141
1.0679999589920,-25.078005292528
1.0700000524521,-25.122731978404
1.0720000267029,-25.166920387357
1.0740000009537,-25.210633706236
1.0759999752045,-25.253930864101
1.0779999494553,-25.296871458218
1.0800000429153,-25.339509901723
1.0820000171661,-25.381894678278
1.0839999914169,-25.424070421348
1.0859999656677,-25.466074969280
1.0880000591278,-25.507940284483
1.0900000333786,-25.549691790490
1.0920000076294,-25.591347445264
1.0939999818802,-25.632919856123
1.0959999561310,-25.674413951166
1.0980000495911,-25.715829071979
1.1000000238419,-25.757159891374
1.1019999980927,-25.798396094742
1.1039999723434,-25.839523116642
1.1059999465942,-25.880521377316
1.1080000400543,-25.921373585679
1.1100000143051,-25.962057570124
1.1119999885559,-26.002552800422
1.1139999628067,-26.042837006487
1.1160000562668,-26.082894060678
1.1180000305176,-26.122706923454
1.1200000047684,-26.162264353692
1.1219999790192,-26.201557881147
1.1239999532700,-26.240587660065
1.1260000467300,-26.279356018575
1.1280000209808,-26.317874539005
1.1299999952316,-26.356161816594
1.1319999694824,-26.394241149624
1.1339999437332,-26.432145563178
1.1360000371933,-26.469914806362
1.1380000114441,-26.507594595131
1.1399999856949,-26.545239729788
1.1419999599457,-26.582908621934
1.1440000534058,-26.620666431279
1.1460000276566,-26.658584692587
1.1480000019073,-26.696736588057
1.1499999761581,-26.735200454116
1.1519999504089,-26.774055900015
1.1540000438690,-26.813384431426
1.1560000181198,-26.853266719104
1.1579999923706,-26.893785347662
1.1599999666214,-26.935018521645
1.1619999408722,-26.977041949626
1.1640000343323,-27.019930444663
1.1660000085831,-27.063749799155
1.1679999828339,-27.108563874565
1.1699999570847,-27.154430724104
1.1720000505447,-27.201397690949
1.1740000247955,-27.249509767623
1.1759999990463,-27.298799834967
1.1779999732971,-27.349294755389
1.1799999475479,-27.401012487572
1.1820000410080,-27.453963723401
1.1840000152588,-27.508148655441
1.1859999895096,-27.563559515566
1.1879999637604,-27.620181579328
1.1900000572205,-27.677990874585
1.1920000314713,-27.736955264533
1.1940000057220,-27.797038243293
1.1959999799728,-27.858195421771
1.1979999542236,-27.920376744552
1.2000000476837,-27.983529657686
1.2020000219345,-28.047594521909
1.2039999961853,-28.112510834964
1.2059999704361,-28.178217354870
1.2079999446869,-28.244650921368
1.2100000381470,-28.311749009490
1.2120000123978,-28.379451051117
1.2139999866486,-28.447700762360
1.2159999608994,-28.516441947683
1.2180000543594,-28.585626200216
1.2200000286102,-28.655208883587
1.2220000028610,-28.725154020749
1.2239999771118,-28.795430593794
1.2259999513626,-28.866016699878
1.2280000448227,-28.936899535866
1.2300000190735,-29.008071351531
1.2319999933243,-29.079537627389
1.2339999675751,-29.151310326410
1.2359999418259,-29.223409382174
1.2380000352859,-29.295862787411
1.2400000095367,-29.368708743405
1.2419999837875,-29.441990980482
1.2439999580383,-29.515757036164
1.2460000514984,-29.590064346552
1.2480000257492,-29.664970150656
1.2500000000000,-29.740537682887
1.2519999742508,-29.816833147946
1.2539999485016,-29.893921624575
1.2560000419617,-29.971868522273
1.2580000162125,-30.050737000423
1.2599999904633,-30.130589314473
1.2619999647141,-30.211481623121
1.2640000581741,-30.293469194538
1.2660000324249,-30.376595303350
1.2680000066757,-30.460900439695
1.2699999809265,-30.546416923470
1.2719999551773,-30.633167167889
1.2740000486374,-30.721166398896
1.2760000228882,-30.810417091011
1.2779999971390,-30.900915842488
1.2799999713898,-30.992646663221
1.2819999456406,-31.085583454650
1.2840000391006,-31.179692455846
1.2860000133514,-31.274928658605
1.2879999876022,-31.371238933252
1.2899999618530,-31.468560297392
1.2920000553131,-31.566826054801
1.2940000295639,-31.665958771296
1.2960000038147,-31.765879262573
1.2979999780655,-31.866503353936
1.2999999523163,-31.967743207849
1.3020000457764,-32.069512963746
1.3040000200272,-32.171723542977
1.3059999942780,-32.274292850649
1.3079999685287,-32.377139299259
1.3099999427795,-32.480187181920
1.3120000362396,-32.583370282698
1.3140000104904,-32.686628429159
1.3159999847412,-32.789912649407
1.3179999589920,-32.893184233649
1.3200000524521,-32.996418083482
1.3220000267029,-33.099601071321
1.3240000009537,-33.202732477261
1.3259999752045,-33.305827366915
1.3279999494553,-33.408912685367
1.3300000429153,-33.512027608040
1.3320000171661,-33.615225189906
1.3339999914169,-33.718570178317
1.3359999656677,-33.822136566335
1.3380000591278,-33.926006350615
1.3400000333786,-34.030271590822
1.3420000076294,-34.135027465424
1.3439999818802,-34.240371330869
1.3459999561310,-34.346403504840
1.3480000495911,-34.453222517190
1.3500000238419,-34.560923592574
1.3519999980927,-34.669596038132
1.3539999723434,-34.779319419896
1.3559999465942,-34.890167050775
1.3580000400543,-35.002196362723
1.3600000143051,-35.115452058021
1.3619999885559,-35.229961580800
1.3639999628067,-35.345736921524
1.3660000562668,-35.462769609009
1.3680000305176,-35.581030621157
1.3700000047684,-35.700469442776
1.3719999790192,-35.821016693606
1.3739999532700,-35.942578279495
1.3760000467300,-36.065040238063
1.3780000209808,-36.188266207659
1.3799999952316,-36.312101170884
1.3819999694824,-36.436371039272
1.3839999437332,-36.560885520726
1.3860000371933,-36.685438466620
1.3880000114441,-36.809815088276
1.3899999856949,-36.933788566074
1.3919999599457,-37.057131252229
1.3940000534058,-37.179611219885
1.3960000276566,-37.301003192293
1.3980000019073,-37.421086849544
1.3999999761581,-37.539656020865
1.4019999504089,-37.656521710694
1.4040000438690,-37.771511935084
1.4060000181198,-37.884484872830
1.4079999923706,-37.995321772847
1.4099999666214,-38.103939411235
1.4119999408722,-38.210282971065
1.4140000343323,-38.314334172169
1.4160000085831,-38.416110681561
1.4179999828339,-38.515660822318
1.4199999570847,-38.613069380626
1.4220000505447,-38.708447707070
1.4240000247955,-38.801939573710
1.4259999990463,-38.893707518901
1.4279999732971,-38.983935108816
1.4299999475479,-39.072822124293
1.4320000410080,-39.160574812594
1.4340000152588,-39.247404700321
1.4359999895096,-39.333519464453
1.4379999637604,-39.419123141060
1.4400000572205,-39.504403539168
1.4420000314713,-39.589535321397
1.4440000057220,-39.674665765900
1.4459999799728,-39.759921405611
1.4479999542236,-39.845395708651
1.4500000476837,-39.931151334272
1.4520000219345,-40.017214805617
1.4539999961853,-40.103576532477
1.4559999704361,-40.190192418254
1.4579999446869,-40.276974502122
1.4600000381470,-40.363804101980
1.4620000123978,-40.450524490894
1.4639999866486,-40.536945911755
1.4659999608994,-40.622849729288
1.4680000543594,-40.707992078137
1.4700000286102,-40.792108175832
1.4720000028610,-40.874919705940
1.4739999771118,-40.956140487329
1.4759999513626,-41.035481228969
1.4780000448227,-41.112664282566
1.4800000190735,-41.187422282651
1.4819999933243,-41.259513771263
1.4839999675751,-41.328724458046
1.4859999418259,-41.394879664120
1.4880000352859,-41.457848257909
1.4900000095367,-41.517546941538
1.4919999837875,-41.573944792924
1.4939999580383,-41.627067637576
1.4960000514984,-41.676996521987
1.4980000257492,-41.723869031490
1.5000000000000,-41.767873609197
1.5019999742508,-41.809251754179
1.5039999485016,-41.848284410666
1.5060000419617,-41.885295219175
1.5080000162125,-41.920637397462
1.5099999904633,-41.954686557723
1.5119999647141,-41.987833902702
1.5140000581741,-42.020478554273
1.5160000324249,-42.053020417253
1.5180000066757,-42.085849181625
1.5199999809265,-42.119336654051
1.5219999551773,-42.153838450807
1.5240000486374,-42.189676791977
1.5260000228882,-42.227142064259
1.5279999971390,-42.266487383051
1.5299999713898,-42.307923760406
1.5319999456406,-42.351618049774
1.5340000391006,-42.397688126213
1.5360000133514,-42.446204890886
1.5379999876022,-42.497189413248
1.5399999618530,-42.550610030923
1.5420000553131,-42.606389502189
1.5440000295639,-42.664399759181
1.5460000038147,-42.724465089460
1.5479999780655,-42.786368068588
1.5499999523163,-42.849850691673
1.5520000457764,-42.914616313544
1.5540000200272,-42.980341290005
1.5559999942780,-43.046673697801
1.5579999685287,-43.113245888438
1.5599999427795,-43.179681057034
1.5620000362396,-43.245598762198
1.5640000104904,-43.310628558856
1.5659999847412,-43.374415591949
1.5679999589920,-43.436630686645
1.5700000524521,-43.496980790387
1.5720000267029,-43.555218527584
1.5740000009537,-43.611145217702
1.5759999752045,-43.664621667156
1.5779999494553,-43.715571956303
1.5800000429153,-43.763985579651
1.5820000171661,-43.809918988527
1.5839999914169,-43.853497749387
1.5859999656677,-43.894908566922
1.5880000591278,-43.934399378542
1.5900000333786,-43.972271012128
1.5920000076294,-44.008869701101
1.5939999818802,-44.044579660831
1.5959999561310,-44.079812448307
1.5980000495911,-44.114996173354
1.6000000238419,-44.150567677846
1.6019999980927,-44.186961143928
1.6039999723434,-44.224598459538
1.6059999465942,-44.263878841906
1.6080000400543,-44.305172825233
1.6100000143051,-44.348812174863
1.6119999885559,-44.395082913736
1.6139999628067,-44.444217824314
1.6160000562668,-44.496394019652
1.6180000305176,-44.551722295484
1.6200000047684,-44.610249459404
1.6219999790192,-44.671947916295
1.6239999532700,-44.736716227783
1.6260000467300,-44.804377470007
1.6280000209808,-44.874676367702
1.6299999952316,-44.947280163577
1.6319999694824,-45.021779327823
1.6339999437332,-45.097690633473
1.6360000371933,-45.174463963698
1.6380000114441,-45.251482473743
1.6399999856949,-45.328080350999
1.6419999599457,-45.403546129820
1.6440000534058,-45.477139937261
1.6460000276566,-45.548111284735
1.6480000019073,-45.615711489068
1.6499999761581,-45.679221228761
1.6519999504089,-45.737964029535
1.6540000438690,-45.791330039017
1.6560000181198,-45.838798869302
1.6579999923706,-45.879951234471
1.6599999666214,-45.914493440423
1.6619999408722,-45.942259624754
1.6640000343323,-45.963223502143
1.6660000085831,-45.977499621675
1.6679999828339,-45.985336094581
1.6699999570847,-45.987110702935
1.6720000505447,-45.983311941469
1.6740000247955,-45.974523861497
1.6759999990463,-45.961409974078
1.6779999732971,-45.944686645639
1.6799999475479,-45.925101294011
1.6820000410080,-45.903415686779
1.6840000152588,-45.880378908565
1.6859999895096,-45.856714793412
1.6879999637604,-45.833099956149
1.6900000572205,-45.810153329544
1.6920000314713,-45.788420531853
1.6940000057220,-45.768368166394
1.6959999799728,-45.750374758634
1.6979999542236,-45.734719186750
1.7000000476837,-45.721588043746
1.7020000219345,-45.711061870769
1.7039999961853,-45.703120310644
1.7059999704361,-45.697643040625
1.7079999446869,-45.694404110112
1.7100000381470,-45.693087537740
1.7120000123978,-45.693281407260
1.7139999866486,-45.694490024339
1.7159999608994,-45.696141312904
1.7180000543594,-45.697600916134
1.7200000286102,-45.698180155894
1.7220000028610,-45.697156322534
1.7239999771118,-45.693790360943
1.7259999513626,-45.687343158854
1.7280000448227,-45.677105212843
1.7300000190735,-45.662408612565
1.7319999933243,-45.642655789640
1.7339999675751,-45.617341181744
1.7359999418259,-45.586065755273
1.7380000352859,-45.548556166790
1.7400000095367,-45.504677097661
1.7419999837875,-45.454434288880
1.7439999580383,-45.397975522052
1.7460000514984,-45.335592642146
1.7480000257492,-45.267704242879
1.7500000000000,-45.194847477332
1.7519999742508,-45.117659108706
1.7539999485016,-45.036855226553
1.7560000419617,-44.953213388662
1.7580000162125,-44.867544923028
1.7599999904633,-44.780683847833
1.7619999647141,-44.693458023165
1.7640000581741,-44.606678818364
1.7660000324249,-44.521121738050
1.7680000066757,-44.437515917650
1.7699999809265,-44.356534162197
1.7719999551773,-44.278780617637
1.7740000486374,-44.204791720774
1.7760000228882,-44.135023358029
1.7779999971390,-44.069852054696
1.7799999713898,-44.009574104491
1.7819999456406,-43.954398235211
1.7840000391006,-43.904452698693
1.7860000133514,-43.859779323538
1.7879999876022,-43.820336340151
1.7899999618530,-43.785998614417
1.7920000553131,-43.756559686360
1.7940000295639,-43.731730473651
1.7960000038147,-43.711148285107
1.7979999780655,-43.694373086251
1.7999999523163,-43.680895105329
1.8020000457764,-43.670141815142
1.8040000200272,-43.661480903265
1.8059999942780,-43.654235575373
1.8079999685287,-43.647687702289
1.8099999427795,-43.641097401866
1.8120000362396,-43.633715637353
1.8140000104904,-43.624798122463
1.8159999847412,-43.613627777094
1.8179999589920,-43.599532338744
1.8200000524521,-43.581901023477
1.8220000267029,-43.560209401296
1.8240000009537,-43.534030669524
1.8259999752045,-43.503057548133
1.8279999494553,-43.467108738850
1.8300000429153,-43.426139816372
1.8320000171661,-43.380248592481
1.8339999914169,-43.329672238234
1.8359999656677,-43.274781512467
1.8380000591278,-43.216075324272
1.8400000333786,-43.154164394927
1.8420000076294,-43.089758142628
1.8439999818802,-43.023646033675
1.8459999561310,-42.956681612540
1.8480000495911,-42.889763570736
1.8500000238419,-42.823819363196
1.8519999980927,-42.759789010612
1.8539999723434,-42.698613910185
1.8559999465942,-42.641221735808
1.8580000400543,-42.588519581542
1.8600000143051,-42.541389111980
1.8619999885559,-42.500674655946
1.8639999628067,-42.467186639138
1.8660000562668,-42.441696455587
1.8680000305176,-42.424938370112
1.8700000047684,-42.417606534086
1.8719999790192,-42.420361400749
1.8739999532700,-42.433826993228
1.8760000467300,-42.458595676323
1.8780000209808,-42.495233560595
1.8799999952316,-42.544277016094
1.8819999694824,-42.606240786313
1.8839999437332,-42.681618228984
1.8860000371933,-42.770882963567
1.8880000114441,-42.874491691471
1.8899999856949,-42.992883655716
1.8919999599457,-43.126482671307
1.8940000534058,-43.275691402805
1.8960000276566,-43.440893750785
1.8980000019073,-43.622449309006
1.8999999761581,-43.820684223906
1.9019999504089,-44.035882966034
1.9040000438690,-44.268275419975
1.9060000181198,-44.518020324804
1.9079999923706,-44.785177488707
1.9099999666214,-45.069679451350
1.9119999408722,-45.371290664949
1.9140000343323,-45.689555130243
1.9160000085831,-46.023730879658
1.9179999828339,-46.372706563085
1.9199999570847,-46.734903420177
1.9220000505447,-47.108162757759
1.9240000247955,-47.489607435711
1.9259999990463,-47.875514056100
1.9279999732971,-48.261179011301
1.9299999475479,-48.640838950566
1.9320000410080,-49.007657623300
1.9340000152588,-49.353861376901
1.9359999895096,-49.671045435537
1.9379999637604,-49.950712671053
1.9400000572205,-50.185020382282
1.9420000314713,-50.367643315159
1.9440000057220,-50.494596541504
1.9459999799728,-50.564820623110
1.9479999542236,-50.580355774199
1.9500000476837,-50.546066979570
1.9520000219345,-50.468978409809
1.9539999961853,-50.357428702660
1.9559999704361,-50.220216845095
1.9579999446869,-50.065900492387
1.9600000381470,-49.902306682913
1.9620000123978,-49.736263938219
1.9639999866486,-49.573505160495
1.9659999608994,-49.418691410902
1.9680000543594,-49.275502883451
1.9700000286102,-49.146761211976
1.9720000028610,-49.034551354353
1.9739999771118,-48.940336039327
1.9759999513626,-48.865049449818
1.9780000448227,-48.809166652230
1.9800000190735,-48.772756751024
1.9819999933243,-48.755505964745
1.9839999675751,-48.756725638172
1.9859999418259,-48.775337886049
1.9880000352859,-48.809852521575
1.9900000095367,-48.858316822478
1.9919999837875,-48.918267982122
1.9939999580383,-48.986676317745
1.9960000514984,-49.059893871247
1.9980000257492,-49.133626225831
2.0000000000000,-49.202941401978
2.0020000934601,-49.262339750796
2.0039999485016,-49.305905413719
2.0060000419617,-49.327557217753
2.0079998970032,-49.321403679391
2.0099999904633,-49.282167013401
2.0120000839233,-49.205642339509
2.0139999389648,-49.089104582741
2.0160000324249,-48.931584098646
2.0179998874664,-48.733954863330
2.0199999809265,-48.498814667577
2.0220000743866,-48.230173013221
2.0239999294281,-47.933031248018
2.0260000228882,-47.612927897938
2.0280001163483,-47.275522684231
2.0299999713898,-46.926257392067
2.0320000648499,-46.570130058245
2.0339999198914,-46.211555917465
2.0360000133514,-45.854318945261
2.0380001068115,-45.501570044221
2.0399999618530,-45.155878591906
2.0420000553131,-44.819282220069
2.0439999103546,-44.493368221776
2.0460000038147,-44.179332976165
2.0480000972748,-43.878055763462
2.0499999523163,-43.590147201586
2.0520000457764,-43.316003728853
2.0539999008179,-43.055847291833
2.0559999942780,-42.809758181734
2.0580000877380,-42.577705585743
2.0599999427795,-42.359565857947
2.0620000362396,-42.155143994096
2.0639998912811,-41.964184335552
2.0659999847412,-41.786381761407
2.0680000782013,-41.621391560850
2.0699999332428,-41.468836160330
2.0720000267029,-41.328304620886
2.0739998817444,-41.199360591738
2.0759999752045,-41.081543911029
2.0780000686646,-40.974373421284
2.0799999237061,-40.877343790139
2.0820000171661,-40.789929723116
2.0840001106262,-40.711586292033
2.0859999656677,-40.641750122091
2.0880000591278,-40.579837122661
2.0899999141693,-40.525247162945
2.0920000076294,-40.477363850086
2.0940001010895,-40.435556765416
2.0959999561310,-40.399182968339
2.0980000495911,-40.367590847699
2.0999999046326,-40.340125763068
2.1019999980927,-40.316134603746
2.1040000915527,-40.294964521728
2.1059999465942,-40.275979600536
2.1080000400543,-40.258558658317
2.1099998950958,-40.242109750108
2.1119999885559,-40.226071755215
2.1140000820160,-40.209923908511
2.1159999370575,-40.193193523558
2.1180000305176,-40.175465416447
2.1199998855591,-40.156380159523
2.1219999790192,-40.135646082913
2.1240000724792,-40.113042512122
2.1259999275208,-40.088417233649
2.1280000209808,-40.061690836950
2.1300001144409,-40.032854169872
2.1319999694824,-40.001965332232
2.1340000629425,-39.969146383677
2.1359999179840,-39.934575619088
2.1380000114441,-39.898479686134
2.1400001049042,-39.861131680067
2.1419999599457,-39.822837156116
2.1440000534058,-39.783925378171
2.1459999084473,-39.744742929443
2.1480000019073,-39.705645066809
2.1500000953674,-39.666986847997
2.1519999504089,-39.629114586699
2.1540000438690,-39.592361545865
2.1559998989105,-39.557041874190
2.1579999923706,-39.523440605497
2.1600000858307,-39.491816963559
2.1619999408722,-39.462390306061
2.1640000343323,-39.435349894579
2.1659998893738,-39.410842367093
2.1679999828339,-39.388973974555
2.1700000762939,-39.369812018802
2.1719999313354,-39.353377996563
2.1740000247955,-39.339655527785
2.1760001182556,-39.328583767984
2.1779999732971,-39.320065189905
2.1800000667572,-39.313961130744
2.1819999217987,-39.310097277393
2.1840000152588,-39.308267399864
2.1860001087189,-39.308230964915
2.1879999637604,-39.309725011677
2.1900000572205,-39.312458420572
2.1919999122620,-39.316125302926
2.1940000057220,-39.320403558255
2.1960000991821,-39.324965097155
2.1979999542236,-39.329478733857
2.2000000476837,-39.333615081446
2.2019999027252,-39.337058798577
2.2039999961853,-39.339505392558
