frequency,refcoef
0.50000000000000,-0.026604315503679
0.50249999761581,-0.029519084102554
0.50499999523163,-0.031549071455587
0.50749999284744,-0.032611733408859
0.50999999046326,-0.032676410446099
0.51249998807907,-0.031767212087334
0.51499998569489,-0.029957041132757
0.51749998331070,-0.027368983721616
0.51999998092651,-0.024162136511744
0.52249997854233,-0.020526639543809
0.52499997615814,-0.016670199858290
0.52749997377396,-0.012810495120451
0.52999997138977,-0.0091610212368622
0.53250002861023,-0.0059202387741132
0.53500002622604,-0.0032622638100252
0.53750002384186,-0.0013286579607352
0.54000002145767,-0.00022209065026834
0.54250001907349,-6.0755421159863e-07
0.54500001668930,-0.00067666785055850
0.54750001430511,-0.0022174942453408
0.55000001192093,-0.0045461648392283
0.55250000953674,-0.0075471253833739
0.55500000715256,-0.011072882335475
0.55750000476837,-0.014952860698500
0.56000000238419,-0.018997044149184
0.56250000000000,-0.023013872635759
0.56499999761581,-0.026814581839134
0.56749999523163,-0.030226005819673
0.56999999284744,-0.033095413684951
0.57249999046326,-0.035303697601466
0.57499998807907,-0.036768424011121
0.57749998569489,-0.037444237368834
0.57999998331070,-0.037332582251993
0.58249998092651,-0.036474658759862
0.58499997854233,-0.034949630035492
0.58749997615814,-0.032872937019044
0.58999997377396,-0.030385441135211
0.59249997138977,-0.027647993961061
0.59500002861023,-0.024835186462271
0.59750002622604,-0.022120109203545
0.60000002384186,-0.019670796388805
0.60250002145767,-0.017638661933583
0.60500001907349,-0.016155450900579
0.60750001668930,-0.015320910650571
0.61000001430511,-0.015204692721459
0.61250001192093,-0.015838674328404
0.61500000953674,-0.017218450322972
0.61750000715256,-0.019304462966030
0.62000000476837,-0.022023841239190
0.62250000238419,-0.025273386867729
0.62500000000000,-0.028929035728850
0.62749999761581,-0.032847239131077
0.62999999523163,-0.036876736940058
0.63249999284744,-0.040863911709619
0.63499999046326,-0.044663137445622
0.63749998807907,-0.048140070896191
0.63999998569489,-0.051185469108620
0.64249998331070,-0.053710261483478
0.64499998092651,-0.055660819885080
0.64749997854233,-0.057014089285974
0.64999997615814,-0.057781410534489
0.65249997377396,-0.058006270279971
0.65499997138977,-0.057762732397379
0.65750002861023,-0.057151559066125
0.66000002622604,-0.056292582192507
0.66250002384186,-0.055321810030273
0.66500002145767,-0.054381916877500
0.66750001907349,-0.053617610537207
0.67000001668930,-0.053165014947736
0.67250001430511,-0.053148542060692
0.67500001192093,-0.053675820300432
0.67750000953674,-0.054829310549134
0.68000000715256,-0.056666885512317
0.68250000476837,-0.059218332182919
0.68500000238419,-0.062483609304698
0.68750000000000,-0.066434631191411
0.68999999761581,-0.071018375745772
0.69249999523163,-0.076159771021310
0.69499999284744,-0.081764768036469
0.69749999046326,-0.087726524575693
0.69999998807907,-0.093932157501830
0.70249998569489,-0.10026618115463
0.70499998331070,-0.10662177077969
0.70749998092651,-0.11289943380190
0.70999997854233,-0.11901839091405
0.71249997615814,-0.12491858528728
0.71499997377396,-0.13056417362685
0.71749997138977,-0.13594365359104
0.72000002861023,-0.14107628884944
0.72250002622604,-0.14600681853734
0.72500002384186,-0.15080467105950
0.72750002145767,-0.15556338787394
0.73000001907349,-0.16039399391650
0.73250001668930,-0.16542316673106
0.73500001430511,-0.17078506832587
0.73750001192093,-0.17662024736286
0.74000000953674,-0.18306506094741
0.74250000715256,-0.19025377824773
0.74500000476837,-0.19830514256737
0.74750000238419,-0.20732889508152
0.75000000000000,-0.21741219437357
0.75249999761581,-0.22862534413067
0.75499999523163,-0.24101899428882
0.75749999284744,-0.25462108609277
0.75999999046326,-0.26944313101910
0.76249998807907,-0.28547574148271
0.76499998569489,-0.30269736129859
0.76749998331070,-0.32107533882095
0.76999998092651,-0.34056942231192
0.77249997854233,-0.36113809159923
0.77499997615814,-0.38273964794737
0.77749997377396,-0.40534317650054
0.77999997138977,-0.42892815795594
0.78250002861023,-0.45348850429778
0.78500002622604,-0.47903988837838
0.78750002384186,-0.50562112216003
0.79000002145767,-0.53329333097560
0.79250001907349,-0.56214754723970
0.79500001668930,-0.59230101136249
0.79750001430511,-0.62389615934315
0.80000001192093,-0.65710279520375
0.80250000953674,-0.69211231967150
0.80500000715256,-0.72914158147578
0.80750000476837,-0.76842234059039
0.81000000238419,-0.81020299377334
0.81250000000000,-0.85474250351938
0.81499999761581,-0.90230823730565
0.81749999523163,-0.95317220150518
0.81999999284744,-1.0076078214956
0.82249999046326,-1.0658837294046
0.82499998807907,-1.1282673333629
0.82749998569489,-1.1950137392243
0.82999998331070,-1.2663715164001
0.83249998092651,-1.3425759290665
0.83499997854233,-1.4238487371864
0.83749997615814,-1.5103975922562
0.83999997377396,-1.6024161829423
0.84249997138977,-1.7000795840905
0.84500002861023,-1.8035474635433
0.84750002622604,-1.9129633111826
0.85000002384186,-2.0284522279878
0.85250002145767,-2.1501228354967
0.85500001907349,-2.2780649725300
0.85750001668930,-2.4123519719315
0.86000001430511,-2.5530337564553
0.86250001192093,-2.7001464411653
0.86500000953674,-2.8537013801621
0.86750000715256,-3.0136878849325
0.87000000476837,-3.1800744200647
0.87250000238419,-3.3527994595640
0.87500000000000,-3.5317791836605
0.87749999761581,-3.7168970868420
0.87999999523163,-3.9080057350731
0.88249999284744,-4.1049237808259
0.88499999046326,-4.3074308785191
0.88749998807907,-4.5152696319163
0.88999998569489,-4.7281397960147
0.89249998331070,-4.9456965386145
0.89499998092651,-5.1675460019100
0.89749997854233,-5.3932519352234
0.89999997615814,-5.6223245767914
0.90249997377396,-5.8542251166951
0.90499997138977,-6.0883709275239
0.90750002861023,-6.3241260254798
0.91000002622604,-6.5608169438907
0.91250002384186,-6.7977261846822
0.91500002145767,-7.0341057165504
0.91750001907349,-7.2691821604786
0.92000001668930,-7.5021616229925
0.92250001430511,-7.7322443424018
0.92500001192093,-7.9586382225051
0.92750000953674,-8.1805657375843
0.93000000715256,-8.3972796454120
0.93250000476837,-8.6080783028224
0.93500000238419,-8.8123163610389
0.93750000000000,-9.0094197458319
0.93999999761581,-9.1988975774133
0.94249999523163,-9.3803448362564
0.94499999284744,-9.5534658915105
0.94749999046326,-9.7180613312461
0.94999998807907,-9.8740448458994
0.95249998569489,-10.021438533661
0.95499998331070,-10.160367962198
0.95749998092651,-10.291065657466
0.95999997854233,-10.413853709747
0.96249997615814,-10.529144562505
0.96499997377396,-10.637424358200
0.96749997138977,-10.739246776152
0.97000002861023,-10.835213025541
0.97250002622604,-10.925968911898
0.97500002384186,-11.012186520240
0.97750002145767,-11.094550773985
0.98000001907349,-11.173751747676
0.98250001668930,-11.250468053579
0.98500001430511,-11.325360477378
0.98750001192093,-11.399062639115
0.99000000953674,-11.472167105031
0.99250000715256,-11.545226204168
0.99500000476837,-11.618741822501
0.99750000238419,-11.693160135929
1.0000000000000,-11.768874904829
1.0025000572205,-11.846220699228
1.0049999952316,-11.925479946266
1.0075000524521,-12.006879624002
1.0099999904633,-12.090599185994
1.0125000476837,-12.176778146791
1.0149999856949,-12.265519905410
1.0175000429153,-12.356903488057
1.0199999809265,-12.450992891618
1.0225000381470,-12.547848340510
1.0249999761581,-12.647537985983
1.0275000333786,-12.750147364079
1.0299999713898,-12.855794679554
1.0325000286102,-12.964635644617
1.0349999666214,-13.076874625528
1.0375000238419,-13.192775592734
1.0399999618530,-13.312659027435
1.0425000190735,-13.436911883922
1.0449999570847,-13.565983093675
1.0475000143051,-13.700385446035
1.0499999523163,-13.840690055067
1.0525000095367,-13.987515681737
1.0549999475479,-14.141527577310
1.0575000047684,-14.303422365530
1.0599999427795,-14.473922611584
1.0625000000000,-14.653761516566
1.0650000572205,-14.843676287495
1.0674999952316,-15.044395712966
1.0700000524521,-15.256628978948
1.0724999904633,-15.481060248094
1.0750000476837,-15.718339544335
1.0774999856949,-15.969074791918
1.0800000429153,-16.233832763908
1.0824999809265,-16.513129946615
1.0850000381470,-16.807438905068
1.0874999761581,-17.117183043867
1.0900000333786,-17.442751832294
1.0924999713898,-17.784498472081
1.0950000286102,-18.142758586587
1.0974999666214,-18.517861022138
1.1000000238419,-18.910147834612
1.1024999618530,-19.319995107049
1.1050000190735,-19.747832202922
1.1074999570847,-20.194166502955
1.1100000143051,-20.659596288058
1.1124999523163,-21.144819525098
1.1150000095367,-21.650620249444
1.1174999475479,-22.177813294252
1.1200000047684,-22.727141017086
1.1224999427795,-23.299065663328
1.1250000000000,-23.893424671759
1.1275000572205,-24.508841262883
1.1299999952316,-25.141807635848
1.1325000524521,-25.785287619383
1.1349999904633,-26.426728698287
1.1375000476837,-27.045562523909
1.1399999856949,-27.610788341421
1.1425000429153,-28.080299777886
1.1449999809265,-28.404743837586
1.1475000381470,-28.538289814085
1.1499999761581,-28.454142902764
1.1525000333786,-28.156063938417
1.1549999713898,-27.677072001291
1.1575000286102,-27.066397115049
1.1599999666214,-26.374276875192
1.1625000238419,-25.642405642470
1.1649999618530,-24.901057054245
1.1675000190735,-24.170213728692
1.1699999570847,-23.462054219974
1.1725000143051,-22.783373560848
1.1749999523163,-22.137444814313
1.1775000095367,-21.525330793452
1.1799999475479,-20.946744095919
1.1825000047684,-20.400598650893
1.1849999427795,-19.885357876916
1.1875000000000,-19.399250443116
1.1900000572205,-18.940405908881
1.1924999952316,-18.506932056188
1.1950000524521,-18.096973036481
1.1974999904633,-17.708737132207
1.2000000476837,-17.340517457477
1.2024999856949,-16.990707934412
1.2050000429153,-16.657807037615
1.2074999809265,-16.340428321161
1.2100000381470,-16.037303598744
1.2124999761581,-15.747282088590
1.2150000333786,-15.469332702450
1.2174999713898,-15.202541106840
1.2200000286102,-14.946109454910
1.2224999666214,-14.699345250221
1.2250000238419,-14.461659135369
1.2274999618530,-14.232549620697
1.2300000190735,-14.011601559055
1.2324999570847,-13.798463368172
1.2350000143051,-13.592843986987
1.2374999523163,-13.394492676882
1.2400000095367,-13.203190543954
1.2424999475479,-13.018734427527
1.2450000047684,-12.840932640261
1.2474999427795,-12.669583716507
1.2500000000000,-12.504479103726
1.2525000572205,-12.345391120808
1.2549999952316,-12.192070436391
1.2575000524521,-12.044241085803
1.2599999904633,-11.901604247599
1.2625000476837,-11.763838514827
1.2649999856949,-11.630603210255
1.2675000429153,-11.501546669066
1.2699999809265,-11.376309141560
1.2725000381470,-11.254535248311
1.2749999761581,-11.135880177837
1.2775000333786,-11.020020025819
1.2799999713898,-10.906660261400
1.2825000286102,-10.795543454467
1.2849999666214,-10.686458570130
1.2875000238419,-10.579240188903
1.2899999618530,-10.473778979935
1.2925000190735,-10.370015263374
1.2949999570847,-10.267945745840
1.2975000143051,-10.167613763857
1.2999999523163,-10.069106672862
1.3025000095367,-9.9725470952704
1.3049999475479,-9.8780856338500
1.3075000047684,-9.7858908704381
1.3099999427795,-9.6961378835457
1.3125000000000,-9.6090006529709
1.3150000572205,-9.5246421738026
1.3174999952316,-9.4432017003726
1.3200000524521,-9.3647915327420
1.3224999904633,-9.2894895635193
1.3250000476837,-9.2173339737192
1.3274999856949,-9.1483182889338
1.3300000429153,-9.0823967823397
1.3324999809265,-9.0194780134614
1.3350000381470,-8.9594330626326
1.3374999761581,-8.9020934224853
1.3400000333786,-8.8472659319787
1.3424999713898,-8.7947312911473
1.3450000286102,-8.7442567331202
1.3474999666214,-8.6956031049087
1.3500000238419,-8.6485347192434
1.3524999618530,-8.6028286417603
1.3550000190735,-8.5582798730127
1.3574999570847,-8.5147121987350
1.3600000143051,-8.4719826529607
1.3624999523163,-8.4299856076586
1.3650000095367,-8.3886553335744
1.3674999475479,-8.3479685283625
1.3700000047684,-8.3079385978516
1.3724999427795,-8.2686151946620
1.3750000000000,-8.2300790841098
1.3775000572205,-8.1924368361550
1.3799999952316,-8.1558073486009
1.3825000524521,-8.1203222225350
1.3849999904633,-8.0861121009373
1.3875000476837,-8.0532995900358
1.3899999856949,-8.0219935262032
1.3925000429153,-7.9922772618135
1.3949999809265,-7.9642147895377
1.3975000381470,-7.9378338215334
1.3999999761581,-7.9131318898956
1.4025000333786,-7.8900737562796
1.4049999713898,-7.8685940068922
1.4075000286102,-7.8485979229678
1.4099999666214,-7.8299698914331
1.4125000238419,-7.8125735743560
1.4149999618530,-7.7962654775303
1.4175000190735,-7.7808957045169
1.4199999570847,-7.7663205737763
1.4225000143051,-7.7524102771634
1.4249999523163,-7.7390533103901
1.4275000095367,-7.7261629799959
1.4299999475479,-7.7136822559364
1.4325000047684,-7.7015910953355
1.4349999427795,-7.6899007095986
1.4375000000000,-7.6786581499284
1.4400000572205,-7.6679431800645
1.4424999952316,-7.6578616057418
1.4450000524521,-7.6485437333324
1.4474999904633,-7.6401311893387
1.4500000476837,-7.6327759146106
1.4524999856949,-7.6266261156492
1.4550000429153,-7.6218211495114
1.4574999809265,-7.6184803161022
1.4600000381470,-7.6167010712867
1.4624999761581,-7.6165427600910
1.4650000333786,-7.6180325640642
1.4674999713898,-7.6211562232845
1.4700000286102,-7.6258568767537
1.4724999666214,-7.6320370592120
1.4750000238419,-7.6395601767526
1.4774999618530,-7.6482563420330
1.4800000190735,-7.6579269569733
1.4824999570847,-7.6683524225695
1.4850000143051,-7.6793035796297
1.4874999523163,-7.6905492507570
1.4900000095367,-7.7018675942038
1.4924999475479,-7.7130551780203
1.4950000047684,-7.7239403053830
1.4974999427795,-7.7343837889820
1.5000000000000,-7.7442961940864
1.5025000572205,-7.7536324681648
1.5049999952316,-7.7624014135833
1.5075000524521,-7.7706609841555
1.5099999904633,-7.7785197266175
1.5125000476837,-7.7861254463216
1.5149999856949,-7.7936656664603
1.5175000429153,-7.8013525965681
1.5199999809265,-7.8094126480745
1.5225000381470,-7.8180834130570
1.5249999761581,-7.8275924972672
1.5275000333786,-7.8381562655840
1.5299999713898,-7.8499613800991
1.5325000286102,-7.8631647870433
1.5349999666214,-7.8778825729510
1.5375000238419,-7.8941867474587
1.5399999618530,-7.9121019282474
1.5425000190735,-7.9316085687054
1.5449999570847,-7.9526425453528
1.5475000143051,-7.9750997994439
1.5499999523163,-7.9988462590172
1.5525000095367,-8.0237218914727
1.5549999475479,-8.0495494058560
1.5575000047684,-8.0761540506057
1.5599999427795,-8.1033624292288
1.5625000000000,-8.1310219076804
1.5650000572205,-8.1590057394662
1.5674999952316,-8.1872233846977
1.5700000524521,-8.2156297788179
1.5724999904633,-8.2442236760577
1.5750000476837,-8.2730546654213
1.5774999856949,-8.3022193331056
1.5800000429153,-8.3318584687638
1.5824999809265,-8.3621522930341
1.5850000381470,-8.3933068078437
1.5874999761581,-8.4255503335930
1.5900000333786,-8.4591194949892
1.5924999713898,-8.4942402309409
1.5950000286102,-8.5311266692125
1.5974999666214,-8.5699640163541
1.6000000238419,-8.6108935085818
1.6024999618530,-8.6540141755532
1.6050000190735,-8.6993641339828
1.6074999570847,-8.7469256030392
1.6100000143051,-8.7966181257364
1.6124999523163,-8.8483034623630
1.6150000095367,-8.9017833683726
1.6174999475479,-8.9568151640913
1.6200000047684,-9.0131140537341
1.6224999427795,-9.0703720355659
1.6250000000000,-9.1282660221822
1.6275000572205,-9.1864790898306
1.6299999952316,-9.2447168502197
1.6325000524521,-9.3027159578493
1.6349999904633,-9.3602697615219
1.6375000476837,-9.4172358504244
1.6399999856949,-9.4735453865819
1.6425000429153,-9.5292116468972
1.6449999809265,-9.5843330544341
1.6475000381470,-9.6390863986782
1.6499999761581,-9.6937261966164
1.6525000333786,-9.7485718752965
1.6549999713898,-9.8039916747409
1.6575000286102,-9.8603901000318
1.6599999666214,-9.9181850517887
1.6625000238419,-9.9777947618116
1.6649999618530,-10.039613481499
1.6675000190735,-10.103996823485
1.6699999570847,-10.171245866568
1.6725000143051,-10.241594028382
1.6749999523163,-10.315194293298
1.6775000095367,-10.392116789179
1.6799999475479,-10.472346250463
1.6825000047684,-10.555778847810
1.6849999427795,-10.642233486631
1.6875000000000,-10.731461964709
1.6900000572205,-10.823156926134
1.6924999952316,-10.916978256660
1.6950000524521,-11.012566423047
1.6974999904633,-11.109570078446
1.7000000476837,-11.207667620610
1.7024999856949,-11.306594115541
1.7050000429153,-11.406156451223
1.7074999809265,-11.506258290326
1.7100000381470,-11.606910702249
1.7124999761581,-11.708242264291
1.7150000333786,-11.810496179109
1.7174999713898,-11.914036062270
1.7200000286102,-12.019320557545
1.7224999666214,-12.126894485124
1.7250000238419,-12.237364009764
1.7274999618530,-12.351365502784
1.7300000190735,-12.469541112083
1.7324999570847,-12.592504745110
1.7350000143051,-12.720809040124
1.7374999523163,-12.854919821781
1.7400000095367,-12.995184960814
1.7424999475479,-13.141811302095
1.7450000047684,-13.294845104851
1.7474999427795,-13.454157452365
1.7500000000000,-13.619435839595
1.7525000572205,-13.790188902383
1.7549999952316,-13.965747170751
1.7575000524521,-14.145290601262
1.7599999904633,-14.327873801035
1.7625000476837,-14.512467882855
1.7649999856949,-14.698015986275
1.7675000429153,-14.883485876227
1.7699999809265,-15.067945749299
1.7725000381470,-15.250618278769
1.7749999761581,-15.430953404254
1.7775000333786,-15.608671942276
1.7799999713898,-15.783799047757
1.7825000286102,-15.956669874701
1.7849999666214,-16.127917378350
1.7875000238419,-16.298425004044
1.7899999618530,-16.469251502455
1.7925000190735,-16.641542262755
1.7949999570847,-16.816407392088
1.7975000143051,-16.994794439446
1.7999999523163,-17.177337906218
1.8025000095367,-17.364213859351
1.8049999475479,-17.554979555036
1.8075000047684,-17.748414170207
1.8099999427795,-17.942379829927
1.8125000000000,-18.133709056784
1.8150000572205,-18.318136486494
1.8174999952316,-18.490338145808
1.8200000524521,-18.644087672585
1.8224999904633,-18.772593957941
1.8250000476837,-18.869010595204
1.8274999856949,-18.927104344411
1.8300000429153,-18.941993820062
1.8324999809265,-18.910798951489
1.8350000381470,-18.833072334266
1.8374999761581,-18.710870156680
1.8400000333786,-18.548461437994
1.8424999713898,-18.351738104963
1.8450000286102,-18.127482326351
1.8474999666214,-17.882636511869
1.8500000238419,-17.623698484557
1.8524999618530,-17.356289636481
1.8550000190735,-17.084896608065
1.8574999570847,-16.812782253139
1.8600000143051,-16.541976847062
1.8624999523163,-16.273380687202
1.8650000095367,-16.006885331116
1.8674999475479,-15.741553408193
1.8700000047684,-15.475798155019
1.8724999427795,-15.207613606189
1.8750000000000,-14.934784151259
1.8775000572205,-14.655128984383
1.8799999952316,-14.366726143260
1.8825000524521,-14.068114952802
1.8849999904633,-13.758457663108
1.8875000476837,-13.437645173027
1.8899999856949,-13.106330153521
1.8925000429153,-12.765895555058
1.8949999809265,-12.418359601221
1.8975000381470,-12.066240321218
1.8999999761581,-11.712400755764
1.9025000333786,-11.359894090413
1.9049999713898,-11.011809362403
1.9075000286102,-10.671164294770
1.9099999666214,-10.340813069696
1.9125000238419,-10.023383470901
1.9149999618530,-9.7212534574268
1.9175000190735,-9.4365309564856
1.9199999570847,-9.1710670370228
1.9225000143051,-8.9264617783446
1.9249999523163,-8.7040964541662
1.9275000095367,-8.5051495872541
1.9299999475479,-8.3306294962254
1.9325000047684,-8.1813929280239
1.9349999427795,-8.0581731154291
1.9375000000000,-7.9615974736520
1.9400000572205,-7.8922039755617
1.9424999952316,-7.8504559068471
1.9450000524521,-7.8367515073820
1.9474999904633,-7.8514291773421
1.9500000476837,-7.8947714560657
1.9524999856949,-7.9670025940082
1.9550000429153,-8.0682782470965
1.9574999809265,-8.1986774727434
1.9600000381470,-8.3581796162507
1.9624999761581,-8.5466330515290
1.9650000333786,-8.7637204375455
1.9674999713898,-9.0089028964481
1.9700000286102,-9.2813513677539
1.9724999666214,-9.5798594621620
1.9750000238419,-9.9027330711963
1.9774999618530,-10.247663270010
