frequency,refcoef
0.50000000000000,-64.232095548510
0.50249999761581,-64.369494198015
0.50499999523163,-64.599669803449
0.50749999284744,-64.931191825702
0.50999999046326,-65.373903626524
0.51249998807907,-65.939045453511
0.51499998569489,-66.638790000224
0.51749998331070,-67.484232629036
0.51999998092651,-68.479346900686
0.52249997854233,-69.604898533108
0.52499997615814,-70.780484686876
0.52749997377396,-71.797793155795
0.52999997138977,-72.295165170412
0.53250002861023,-71.978475126661
0.53500002622604,-70.956319445649
0.53750002384186,-69.604344291824
0.54000002145767,-68.218107034820
0.54250001907349,-66.935827800158
0.54500001668930,-65.802821917902
0.54750001430511,-64.825497912042
0.55000001192093,-63.996991536931
0.55250000953674,-63.307396735510
0.55500000715256,-62.747510983129
0.55750000476837,-62.310087004520
0.56000000238419,-61.990169752544
0.56250000000000,-61.785159998066
0.56499999761581,-61.694856296794
0.56749999523163,-61.721582416653
0.56999999284744,-61.870471381951
0.57249999046326,-62.149967579347
0.57499998807907,-62.572631031091
0.57749998569489,-63.156325833453
0.57999998331070,-63.925885211864
0.58249998092651,-64.914992480900
0.58499997854233,-66.166632362426
0.58749997615814,-67.723956804407
0.58999997377396,-69.575676067943
0.59249997138977,-71.427851024014
0.59500002861023,-72.245522989833
0.59750002622604,-71.084199473528
0.60000002384186,-68.849882614367
0.60250002145767,-66.597731952384
0.60500001907349,-64.634884584801
0.60750001668930,-62.975024507203
0.61000001430511,-61.574256097546
0.61250001192093,-60.388077078048
0.61500000953674,-59.380996356906
0.61750000715256,-58.526099986103
0.62000000476837,-57.803069648610
0.62250000238419,-57.196373640752
0.62500000000000,-56.693876241604
0.62749999761581,-56.285778860536
0.62999999523163,-55.963771580416
0.63249999284744,-55.720306079919
0.63499999046326,-55.547877800731
0.63749998807907,-55.438268776087
0.63999998569489,-55.381684263987
0.64249998331070,-55.365774043897
0.64499998092651,-55.374622826405
0.64749997854233,-55.387935952307
0.64999997615814,-55.380906509826
0.65249997377396,-55.325470551668
0.65499997138977,-55.193553382697
0.65750002861023,-54.962187637147
0.66000002622604,-54.618967311965
0.66250002384186,-54.165294486683
0.66500002145767,-53.615585568212
0.66750001907349,-52.992884602984
0.67000001668930,-52.323209621473
0.67250001430511,-51.630944122902
0.67500001192093,-50.936272261030
0.67750000953674,-50.254424826596
0.68000000715256,-49.596026903970
0.68250000476837,-48.967889720100
0.68500000238419,-48.373882838651
0.68750000000000,-47.815667608290
0.68999999761581,-47.293267453559
0.69249999523163,-46.805485328707
0.69499999284744,-46.350170399349
0.69749999046326,-45.924414284657
0.69999998807907,-45.524666695396
0.70249998569489,-45.146827499175
0.70499998331070,-44.786320642911
0.70749998092651,-44.438191502283
0.70999997854233,-44.097214657547
0.71249997615814,-43.758063448225
0.71499997377396,-43.415514334958
0.71749997138977,-43.064689173815
0.72000002861023,-42.701322830615
0.72250002622604,-42.322021209969
0.72500002384186,-41.924458133478
0.72750002145767,-41.507501280626
0.73000001907349,-41.071219563330
0.73250001668930,-40.616789355368
0.73500001430511,-40.146298717240
0.73750001192093,-39.662494599448
0.74000000953674,-39.168514902229
0.74250000715256,-38.667621613366
0.74500000476837,-38.162990625365
0.74750000238419,-37.657536806342
0.75000000000000,-37.153806708366
0.75249999761581,-36.653916485571
0.75499999523163,-36.159526937459
0.75749999284744,-35.671852850573
0.75999999046326,-35.191691394875
0.76249998807907,-34.719461960612
0.76499998569489,-34.255256798156
0.76749998331070,-33.798892424810
0.76999998092651,-33.349961162756
0.77249997854233,-32.907887608201
0.77499997615814,-32.471976653659
0.77749997377396,-32.041466023089
0.77999997138977,-31.615570639698
0.78250002861023,-31.193526998052
0.78500002622604,-30.774631290066
0.78750002384186,-30.358270613165
0.79000002145767,-29.943957111411
0.79250001907349,-29.531337064800
0.79500001668930,-29.120212096871
0.79750001430511,-28.710540564252
0.80000001192093,-28.302434037032
0.80250000953674,-27.896150335692
0.80500000715256,-27.492073837568
0.80750000476837,-27.090703747647
0.81000000238419,-26.692627549269
0.81250000000000,-26.298497707236
0.81499999761581,-25.909010901716
0.81749999523163,-25.524883749044
0.81999999284744,-25.146837325717
0.82249999046326,-24.775574616647
0.82499998807907,-24.411770978580
0.82749998569489,-24.056060902587
0.82999998331070,-23.709025216373
0.83249998092651,-23.371193025527
0.83499997854233,-23.043032557191
0.83749997615814,-22.724951139320
0.83999997377396,-22.417290663724
0.84249997138977,-22.120338458167
0.84500002861023,-21.834316832266
0.84750002622604,-21.559394319541
0.85000002384186,-21.295684502445
0.85250002145767,-21.043251453984
0.85500001907349,-20.802110052127
0.85750001668930,-20.572231939133
0.86000001430511,-20.353548315356
0.86250001192093,-20.145952073162
0.86500000953674,-19.949302767352
0.86750000715256,-19.763426723913
0.87000000476837,-19.588121486151
0.87250000238419,-19.423160279238
0.87500000000000,-19.268291231715
0.87749999761581,-19.123240561817
0.87999999523163,-18.987719562662
0.88249999284744,-18.861420190624
0.88499999046326,-18.744020418409
0.88749998807907,-18.635187306933
0.88999998569489,-18.534579946125
0.89249998331070,-18.441847155018
0.89499998092651,-18.356635888408
0.89749997854233,-18.278587699183
0.89999997615814,-18.207343548699
0.90249997377396,-18.142545899682
0.90499997138977,-18.083840580018
0.90750002861023,-18.030876488962
0.91000002622604,-17.983308121048
0.91250002384186,-17.940799302683
0.91500002145767,-17.903021530503
0.91750001907349,-17.869654337076
0.92000001668930,-17.840389554865
0.92250001430511,-17.814929042440
0.92500001192093,-17.792983613001
0.92750000953674,-17.774279258694
0.93000000715256,-17.758550077116
0.93250000476837,-17.745541964337
0.93500000238419,-17.735013684348
0.93750000000000,-17.726732570402
0.93999999761581,-17.720475014414
0.94249999523163,-17.716031697946
0.94499999284744,-17.713199858084
0.94749999046326,-17.711789619971
0.94999998807907,-17.711618974975
0.95249998569489,-17.712516989816
0.95499998331070,-17.714326625907
0.95749998092651,-17.716900912326
0.95999997854233,-17.720105968694
0.96249997615814,-17.723820633191
0.96499997377396,-17.727942016684
0.96749997138977,-17.732380794906
0.97000002861023,-17.737064971051
0.97250002622604,-17.741938672478
0.97500002384186,-17.746967979528
0.97750002145767,-17.752134634182
0.98000001907349,-17.757436640818
0.98250001668930,-17.762893863795
0.98500001430511,-17.768539821143
0.98750001192093,-17.774423351713
0.99000000953674,-17.780606178787
0.99250000715256,-17.787159717971
0.99500000476837,-17.794164200151
0.99750000238419,-17.801702439986
1.0000000000000,-17.809861221566
1.0025000572205,-17.818720889287
1.0049999952316,-17.828361144610
1.0075000524521,-17.838847444249
1.0099999904633,-17.850236751129
1.0125000476837,-17.862566433280
1.0149999856949,-17.875860611581
1.0175000429153,-17.890122082028
1.0199999809265,-17.905330458162
1.0225000381470,-17.921446267382
1.0249999761581,-17.938404823798
1.0275000333786,-17.956119818125
1.0299999713898,-17.974488243183
1.0325000286102,-17.993383061059
1.0349999666214,-18.012662176313
1.0375000238419,-18.032171826271
1.0399999618530,-18.051743750310
1.0425000190735,-18.071209553361
1.0449999570847,-18.090392503404
1.0475000143051,-18.109120216833
1.0499999523163,-18.127224883888
1.0525000095367,-18.144550981923
1.0549999475479,-18.160953058084
1.0575000047684,-18.176301713583
1.0599999427795,-18.190489334154
1.0625000000000,-18.203425515172
1.0650000572205,-18.215043565339
1.0674999952316,-18.225297624694
1.0700000524521,-18.234164031767
1.0724999904633,-18.241638773930
1.0750000476837,-18.247739300820
1.0774999856949,-18.252496779276
1.0800000429153,-18.255960262578
1.0824999809265,-18.258190196066
1.0850000381470,-18.259255929163
1.0874999761581,-18.259235883179
1.0900000333786,-18.258214482610
1.0924999713898,-18.256278306927
1.0950000286102,-18.253519111041
1.0974999666214,-18.250028886666
1.1000000238419,-18.245901608498
1.1024999618530,-18.241234444560
1.1050000190735,-18.236125968069
1.1074999570847,-18.230677230738
1.1100000143051,-18.224995808710
1.1124999523163,-18.219192402910
1.1150000095367,-18.213387903604
1.1174999475479,-18.207706962824
1.1200000047684,-18.202285718978
1.1224999427795,-18.197268778494
1.1250000000000,-18.192807270335
1.1275000572205,-18.189062588295
1.1299999952316,-18.186202102810
1.1325000524521,-18.184397290217
1.1349999904633,-18.183823955578
1.1375000476837,-18.184655365775
1.1399999856949,-18.187062823725
1.1425000429153,-18.191208149050
1.1449999809265,-18.197245107967
1.1475000381470,-18.205309545570
1.1499999761581,-18.215519726665
1.1525000333786,-18.227969136833
1.1549999713898,-18.242727122189
1.1575000286102,-18.259831476569
1.1599999666214,-18.279287267673
1.1625000238419,-18.301068730461
1.1649999618530,-18.325111239194
1.1675000190735,-18.351316463394
1.1699999570847,-18.379550904345
1.1725000143051,-18.409647210084
1.1749999523163,-18.441407318678
1.1775000095367,-18.474606190072
1.1799999475479,-18.508997014590
1.1825000047684,-18.544314525235
1.1849999427795,-18.580283951408
1.1875000000000,-18.616626281120
1.1900000572205,-18.653067552202
1.1924999952316,-18.689342422058
1.1950000524521,-18.725207594789
1.1974999904633,-18.760443119158
1.2000000476837,-18.794863645933
1.2024999856949,-18.828318807470
1.2050000429153,-18.860704703693
1.2074999809265,-18.891958035471
1.2100000381470,-18.922063701033
1.2124999761581,-18.951051927519
1.2150000333786,-18.978994777239
1.2174999713898,-19.006006094400
1.2200000286102,-19.032233730174
1.2224999666214,-19.057854180427
1.2250000238419,-19.083066689762
1.2274999618530,-19.108084435876
1.2300000190735,-19.133127087659
1.2324999570847,-19.158414543457
1.2350000143051,-19.184160525687
1.2374999523163,-19.210563009820
1.2400000095367,-19.237802917641
1.2424999475479,-19.266037418894
1.2450000047684,-19.295396083812
1.2474999427795,-19.325980219206
1.2500000000000,-19.357861988256
1.2525000572205,-19.391082972503
1.2549999952316,-19.425657090095
1.2575000524521,-19.461570989228
1.2599999904633,-19.498788892178
1.2625000476837,-19.537256269645
1.2649999856949,-19.576898683261
1.2675000429153,-19.617634704387
1.2699999809265,-19.659372132478
1.2725000381470,-19.702016749358
1.2749999761581,-19.745473617733
1.2775000333786,-19.789650459634
1.2799999713898,-19.834460290956
1.2825000286102,-19.879824888050
1.2849999666214,-19.925670884098
1.2875000238419,-19.971933362318
1.2899999618530,-20.018555074321
1.2925000190735,-20.065479013213
1.2949999570847,-20.112653542944
1.2975000143051,-20.160023241922
1.2999999523163,-20.207529706471
1.3025000095367,-20.255105062344
1.3049999475479,-20.302672811548
1.3075000047684,-20.350139825708
1.3099999427795,-20.397399865085
1.3125000000000,-20.444327211314
1.3150000572205,-20.490780316236
1.3174999952316,-20.536603998035
1.3200000524521,-20.581625371918
1.3224999904633,-20.625663952603
1.3250000476837,-20.668534790722
1.3274999856949,-20.710049320096
1.3300000429153,-20.750028526997
1.3324999809265,-20.788304831495
1.3350000381470,-20.824729367216
1.3374999761581,-20.859183804398
1.3400000333786,-20.891574662840
1.3424999713898,-20.921852899282
1.3450000286102,-20.950005286139
1.3474999666214,-20.976061671473
1.3500000238419,-21.000095761670
1.3524999618530,-21.022220221739
1.3550000190735,-21.042586288526
1.3574999570847,-21.061375709919
1.3600000143051,-21.078796044628
1.3624999523163,-21.095073143579
1.3650000095367,-21.110441415818
1.3674999475479,-21.125135572779
1.3700000047684,-21.139383209874
1.3724999427795,-21.153394474921
1.3750000000000,-21.167357902429
1.3775000572205,-21.181430593549
1.3799999952316,-21.195737520546
1.3825000524521,-21.210365737517
1.3849999904633,-21.225362540050
1.3875000476837,-21.240739152668
1.3899999856949,-21.256471009947
1.3925000429153,-21.272498833875
1.3949999809265,-21.288741620865
1.3975000381470,-21.305094488925
1.3999999761581,-21.321438982327
1.4025000333786,-21.337658812976
1.4049999713898,-21.353633779879
1.4075000286102,-21.369261601890
1.4099999666214,-21.384458902514
1.4125000238419,-21.399167716917
1.4149999618530,-21.413362828961
1.4175000190735,-21.427055694731
1.4199999570847,-21.440292335487
1.4225000143051,-21.453158588926
1.4249999523163,-21.465773935214
1.4275000095367,-21.478287952580
1.4299999475479,-21.490875604799
1.4325000047684,-21.503728157357
1.4349999427795,-21.517047193640
1.4375000000000,-21.531034321211
1.4400000572205,-21.545881848484
1.4424999952316,-21.561764506933
1.4450000524521,-21.578830377411
1.4474999904633,-21.597196722772
1.4500000476837,-21.616937466883
1.4524999856949,-21.638087149735
1.4550000429153,-21.660631250757
1.4574999809265,-21.684509014560
1.4600000381470,-21.709614520339
1.4624999761581,-21.735799504412
1.4650000333786,-21.762876821593
1.4674999713898,-21.790630014506
1.4700000286102,-21.818820072367
1.4724999666214,-21.847194602152
1.4750000238419,-21.875499814839
1.4774999618530,-21.903491805092
1.4800000190735,-21.930941334113
1.4824999570847,-21.957652161029
1.4850000143051,-21.983461936456
1.4874999523163,-22.008254047148
1.4900000095367,-22.031958212521
1.4924999475479,-22.054557087299
1.4950000047684,-22.076078941461
1.4974999427795,-22.096601883097
1.5000000000000,-22.116242491595
1.5025000572205,-22.135150077303
1.5049999952316,-22.153495346792
1.5075000524521,-22.171460565335
1.5099999904633,-22.189230014148
1.5125000476837,-22.206972939804
1.5149999856949,-22.224836731511
1.5175000429153,-22.242934392002
1.5199999809265,-22.261335594282
1.5225000381470,-22.280062313355
1.5249999761581,-22.299085192014
1.5275000333786,-22.318314240559
1.5299999713898,-22.337611853762
1.5325000286102,-22.356785878417
1.5349999666214,-22.375603092423
1.5375000238419,-22.393795179084
1.5399999618530,-22.411072362930
1.5425000190735,-22.427133507408
1.5449999570847,-22.441682280730
1.5475000143051,-22.454443591711
1.5499999523163,-22.465173218178
1.5525000095367,-22.473676727785
1.5549999475479,-22.479819055203
1.5575000047684,-22.483529018367
1.5599999427795,-22.484810704004
1.5625000000000,-22.483743812444
1.5650000572205,-22.480480201112
1.5674999952316,-22.475238704125
1.5700000524521,-22.468298711364
1.5724999904633,-22.459985387396
1.5750000476837,-22.450659937341
1.5774999856949,-22.440698784162
1.5800000429153,-22.430485354313
1.5824999809265,-22.420392065931
1.5850000381470,-22.410761135481
1.5874999761581,-22.401899750327
1.5900000333786,-22.394068246531
1.5924999713898,-22.387466542065
1.5950000286102,-22.382233940878
1.5974999666214,-22.378445679324
1.6000000238419,-22.376113120712
1.6024999618530,-22.375186488028
1.6050000190735,-22.375561280601
1.6074999570847,-22.377084822211
1.6100000143051,-22.379569860081
1.6124999523163,-22.382803059748
1.6150000095367,-22.386559355377
1.6174999475479,-22.390613882916
1.6200000047684,-22.394756746597
1.6224999427795,-22.398803962674
1.6250000000000,-22.402609638925
1.6275000572205,-22.406070995679
1.6299999952316,-22.409138545688
1.6325000524521,-22.411814080153
1.6349999904633,-22.414157188817
1.6375000476837,-22.416272427498
1.6399999856949,-22.418309652813
1.6425000429153,-22.420453699016
1.6449999809265,-22.422910955603
1.6475000381470,-22.425895372784
1.6499999761581,-22.429619346424
1.6525000333786,-22.434275402182
1.6549999713898,-22.440027018066
1.6575000286102,-22.446990135658
1.6599999666214,-22.455235315207
1.6625000238419,-22.464762974374
1.6649999618530,-22.475516222042
1.6675000190735,-22.487366640092
1.6699999570847,-22.500122931798
1.6725000143051,-22.513533156518
1.6749999523163,-22.527294560064
1.6775000095367,-22.541066694397
1.6799999475479,-22.554483615833
1.6825000047684,-22.567172979508
1.6849999427795,-22.578775992386
1.6875000000000,-22.588965471515
1.6900000572205,-22.597462613532
1.6924999952316,-22.604056295391
1.6950000524521,-22.608622712340
1.6974999904633,-22.611124962944
1.7000000476837,-22.611629069189
1.7024999856949,-22.610300662272
1.7050000429153,-22.607401904348
1.7074999809265,-22.603284015431
1.7100000381470,-22.598367754071
1.7124999761581,-22.593136712273
1.7150000333786,-22.588102803174
1.7174999713898,-22.583800101658
1.7200000286102,-22.580747789059
1.7224999666214,-22.579439401130
1.7250000238419,-22.580313411943
1.7274999618530,-22.583743075485
1.7300000190735,-22.590014622411
1.7324999570847,-22.599313402808
1.7350000143051,-22.611723513267
1.7374999523163,-22.627212761377
1.7400000095367,-22.645643828426
1.7424999475479,-22.666764604370
1.7450000047684,-22.690231209411
1.7474999427795,-22.715608898410
1.7500000000000,-22.742398551362
1.7525000572205,-22.770054578724
1.7549999952316,-22.798010290098
1.7575000524521,-22.825709364318
1.7599999904633,-22.852631296088
1.7625000476837,-22.878320600253
1.7649999856949,-22.902417818875
1.7675000429153,-22.924681214547
1.7699999809265,-22.945005800727
1.7725000381470,-22.963433777082
1.7749999761581,-22.980159840887
1.7775000333786,-22.995528630464
1.7799999713898,-23.010021217609
1.7825000286102,-23.024235875582
1.7849999666214,-23.038862381407
1.7875000238419,-23.054656486712
1.7899999618530,-23.072402704234
1.7925000190735,-23.092884845963
1.7949999570847,-23.116850019026
1.7975000143051,-23.144977895525
1.7999999523163,-23.177854421304
1.8025000095367,-23.215943891459
1.8049999475479,-23.259567472229
1.8075000047684,-23.308889223036
1.8099999427795,-23.363902370373
1.8125000000000,-23.424423137793
1.8150000572205,-23.490090678769
1.8174999952316,-23.560373974310
1.8200000524521,-23.634589488105
1.8224999904633,-23.711916823837
1.8250000476837,-23.791437673222
1.8274999856949,-23.872169284555
1.8300000429153,-23.953117894249
1.8324999809265,-24.033328684550
1.8350000381470,-24.111943409668
1.8374999761581,-24.188263813136
1.8400000333786,-24.261799528174
1.8424999713898,-24.332314384882
1.8450000286102,-24.399859508551
1.8474999666214,-24.464786569593
1.8500000238419,-24.527742382026
1.8524999618530,-24.589645207310
1.8550000190735,-24.651643700857
1.8574999570847,-24.715051116997
1.8600000143051,-24.781274079016
1.8624999523163,-24.851728570509
1.8650000095367,-24.927742038660
1.8674999475479,-25.010456256918
1.8700000047684,-25.100714677147
1.8724999427795,-25.198949465778
1.8750000000000,-25.305056372825
1.8775000572205,-25.418261208291
1.8799999952316,-25.536979020644
1.8825000524521,-25.658676565432
1.8849999904633,-25.779749563879
1.8875000476837,-25.895437343261
1.8899999856949,-25.999823954551
1.8925000429153,-26.085962745688
1.8949999809265,-26.146182808507
1.8975000381470,-26.172611546656
1.8999999761581,-26.157894105705
1.9025000333786,-26.096039231839
1.9049999713898,-25.983231892966
1.9075000286102,-25.818422905335
1.9099999666214,-25.603535399239
1.9125000238419,-25.343230090970
1.9149999618530,-25.044299662262
1.9175000190735,-24.714855808848
1.9199999570847,-24.363505160839
1.9225000143051,-23.998655607446
1.9249999523163,-23.628029360728
1.9275000095367,-23.258380767965
1.9299999475479,-22.895402324064
1.9325000047684,-22.543734280239
1.9349999427795,-22.207057717007
1.9375000000000,-21.888219222866
1.9400000572205,-21.589362696092
1.9424999952316,-21.312054854220
1.9450000524521,-21.057394513447
1.9474999904633,-20.826108245536
1.9500000476837,-20.618622722325
1.9524999856949,-20.435128437375
1.9550000429153,-20.275622467057
1.9574999809265,-20.139948584288
1.9600000381470,-20.027817043402
1.9624999761581,-19.938823672491
1.9650000333786,-19.872464341727
1.9674999713898,-19.828135767472
1.9700000286102,-19.805140125701
1.9724999666214,-19.802682365485
1.9750000238419,-19.819866378437
1.9774999618530,-19.855689840385
1.9800000190735,-19.909034710248
1.9824999570847,-19.978663268295
1.9850000143051,-20.063209006102
1.9874999523163,-20.161180011123
1.9900000095367,-20.270954021557
1.9924999475479,-20.390782929491
1.9950000047684,-20.518814140937
