frequency,phase
0.50000000000000,-83.227828946856
0.50249999761581,-85.772388857366
0.50499999523163,-85.201596524326
0.50749999284744,-77.758781061568
0.50999999046326,-55.306269600770
0.51249998807907,-21.297557413575
0.51499998569489,-1.8335170837131
0.51749998331070,4.2843869733106
0.51999998092651,4.5675398921924
0.52249997854233,2.2266080257259
0.52499997615814,-1.4324051554993
0.52749997377396,-5.8082448364360
0.52999997138977,-10.588347953976
0.53250002861023,-15.592127135605
0.53500002622604,-20.704603904585
0.53750002384186,-25.845142696754
0.54000002145767,-30.951174664381
0.54250001907349,-35.968757788759
0.54500001668930,-40.846399234338
0.54750001430511,-45.530295602957
0.55000001192093,-49.959983899482
0.55250000953674,-54.063786445534
0.55500000715256,-57.753447305099
0.55750000476837,-60.917817466655
0.56000000238419,-63.415718294892
0.56250000000000,-65.069579151956
0.56499999761581,-65.664762852397
0.56749999523163,-64.966341634940
0.56999999284744,-62.775516686475
0.57249999046326,-59.049585574297
0.57499998807907,-54.065283174769
0.57749998569489,-48.494212715670
0.57999998331070,-43.220945922789
0.58249998092651,-38.977200731668
0.58499997854233,-36.110019304379
0.58749997615814,-34.619858989215
0.58999997377396,-34.321333600146
0.59249997138977,-34.975062989980
0.59500002861023,-36.354153715323
0.59750002622604,-38.266214105757
0.60000002384186,-40.554584607204
0.60250002145767,-43.092464130424
0.60500001907349,-45.775701900616
0.60750001668930,-48.516394189612
0.61000001430511,-51.237677102236
0.61250001192093,-53.869786924628
0.61500000953674,-56.347144176932
0.61750000715256,-58.606300648984
0.62000000476837,-60.585149921344
0.62250000238419,-62.223363578726
0.62500000000000,-63.464300887533
0.62749999761581,-64.259286546471
0.62999999523163,-64.574472561420
0.63249999284744,-64.399970524071
0.63499999046326,-63.760074840040
0.63749998807907,-62.720895338723
0.63999998569489,-61.391727776553
0.64249998331070,-59.915718132779
0.64499998092651,-58.450045091747
0.64749997854233,-57.141792252572
0.64999997615814,-56.106940732731
0.65249997377396,-55.419564196475
0.65499997138977,-55.111520491380
0.65750002861023,-55.179908776142
0.66000002622604,-55.597266024317
0.66250002384186,-56.321598122412
0.66500002145767,-57.304054080063
0.66750001907349,-58.494333224866
0.67000001668930,-59.843974921269
0.67250001430511,-61.308418232291
0.67500001192093,-62.847876992665
0.67750000953674,-64.427897606535
0.68000000715256,-66.019631877305
0.68250000476837,-67.599980417277
0.68500000238419,-69.151588567305
0.68750000000000,-70.662997611190
0.68999999761581,-72.128641684348
0.69249999523163,-73.548590662282
0.69499999284744,-74.928349551078
0.69749999046326,-76.278249000239
0.69999998807907,-77.612539340257
0.70249998569489,-78.948401578649
0.70499998331070,-80.304637934930
0.70749998092651,-81.700455111805
0.70999997854233,-83.154131028940
0.71249997615814,-84.682024068488
0.71499997377396,-86.297780723349
0.71749997138977,-88.011836803744
0.72000002861023,-89.831235349767
0.72250002622604,-91.759739158944
0.72500002384186,-93.798086302101
0.72750002145767,-95.944418394790
0.73000001907349,-98.194753818763
0.73250001668930,-100.54349195778
0.73500001430511,-102.98382973066
0.73750001192093,-105.50823498856
0.74000000953674,-108.10873289785
0.74250000715256,-110.77725438434
0.74500000476837,-113.50582510452
0.74750000238419,-116.28678535233
0.75000000000000,-119.11285776819
0.75249999761581,-121.97728687607
0.75499999523163,-124.87387604018
0.75749999284744,-127.79704706242
0.75999999046326,-130.74178587374
0.76249998807907,-133.70371081147
0.76499998569489,-136.67899778045
0.76749998331070,-139.66438005857
0.76999998092651,-142.65707960026
0.77249997854233,-145.65472716375
0.77499997615814,-148.65540721902
0.77749997377396,-151.65753499255
0.77999997138977,-154.65971487017
0.78250002861023,-157.66087363341
0.78500002622604,-160.65998445080
0.78750002384186,-163.65616915634
0.79000002145767,-166.64860993846
0.79250001907349,-169.63639488647
0.79500001668930,-172.61866093135
0.79750001430511,-175.59442359714
0.80000001192093,-178.56261898572
0.80250000953674,178.47790102207
0.80500000715256,175.52843372185
0.80750000476837,172.59025071324
0.81000000238419,169.66482635748
0.81250000000000,166.75352614385
0.81499999761581,163.85778552333
0.81749999523163,160.97891456964
0.81999999284744,158.11811798591
0.82249999046326,155.27640541905
0.82499998807907,152.45445656022
0.82749998569489,149.65268566535
0.82999998331070,146.87107686263
0.83249998092651,144.10911277478
0.83499997854233,141.36576753771
0.83749997615814,138.63945429153
0.83999997377396,135.92796692869
0.84249997138977,133.22845987555
0.84500002861023,130.53752717325
0.84750002622604,127.85121091158
0.85000002384186,125.16498332567
0.85250002145767,122.47399814605
0.85500001907349,119.77293256623
0.85750001668930,117.05640019361
0.86000001430511,114.31891411274
0.86250001192093,111.55495578603
0.86500000953674,108.75925020733
0.86750000715256,105.92690766104
0.87000000476837,103.05328337997
0.87250000238419,100.13438802180
0.87500000000000,97.166725524886
0.87749999761581,94.147454382147
0.87999999523163,91.074415515094
0.88249999284744,87.945942934289
0.88499999046326,84.761243864615
0.88749998807907,81.519909557657
0.88999998569489,78.222240067445
0.89249998331070,74.869027485303
0.89499998092651,71.461447105095
0.89749997854233,68.001243509972
0.89999997615814,64.490336211941
0.90249997377396,60.930959877786
0.90499997138977,57.325741111294
0.90750002861023,53.677381572763
0.91000002622604,49.988642897152
0.91250002384186,46.262584216143
0.91500002145767,42.502209903848
0.91750001907349,38.710551473354
0.92000001668930,34.890729032073
0.92250001430511,31.045767148165
0.92500001192093,27.178787551320
0.92750000953674,23.292655314217
0.93000000715256,19.390349743329
0.93250000476837,15.474712403376
0.93500000238419,11.548447260049
0.93750000000000,7.6142301789193
0.93999999761581,3.6745498462751
0.94249999523163,-0.26808128987909
0.94499999284744,-4.2114496266826
0.94749999046326,-8.1533703351275
0.94999998807907,-12.091794110025
0.95249998569489,-16.024863486412
0.95499998331070,-19.950803213113
0.95749998092651,-23.868051323226
0.95999997854233,-27.775138212724
0.96249997615814,-31.670833971821
0.96499997377396,-35.553983157303
0.96749997138977,-39.423669371664
0.97000002861023,-43.279121653471
0.97250002622604,-47.119653941908
0.97500002384186,-50.944916620533
0.97750002145767,-54.754523194323
0.98000001907349,-58.548392501470
0.98250001668930,-62.326524326642
0.98500001430511,-66.089085022995
0.98750001192093,-69.836317603644
0.99000000953674,-73.568689752116
0.99250000715256,-77.286688034816
0.99500000476837,-80.990835213604
0.99750000238419,-84.681870226251
1.0000000000000,-88.360500740115
1.0025000572205,-92.027410820020
1.0049999952316,-95.683338178337
1.0075000524521,-99.329074246773
1.0099999904633,-102.96524868998
1.0125000476837,-106.59246106047
1.0149999856949,-110.21131371592
1.0175000429153,-113.82213530036
1.0199999809265,-117.42535873166
1.0225000381470,-121.02104672729
1.0249999761581,-124.60924332551
1.0275000333786,-128.18968365553
1.0299999713898,-131.76209037826
1.0325000286102,-135.32580757780
1.0349999666214,-138.88013243206
1.0375000238419,-142.42390899080
1.0399999618530,-145.95582506254
1.0425000190735,-149.47435545349
1.0449999570847,-152.97780562886
1.0475000143051,-156.46387979918
1.0499999523163,-159.93028208617
1.0525000095367,-163.37439139866
1.0549999475479,-166.79303905725
1.0575000047684,-170.18283432047
1.0599999427795,-173.54017207067
1.0625000000000,-176.86084616463
1.0650000572205,179.85984315894
1.0674999952316,176.62681402601
1.0700000524521,173.44569420567
1.0724999904633,170.32254971010
1.0750000476837,167.26409929401
1.0774999856949,164.27777887061
1.0800000429153,161.37172166696
1.0824999809265,158.55478789471
1.0850000381470,155.83692080954
1.0874999761581,153.22882651177
1.0900000333786,150.74225601988
1.0924999713898,148.39010129393
1.0950000286102,146.18613443520
1.0974999666214,144.14538380333
1.1000000238419,142.28336591244
1.1024999618530,140.61647151200
1.1050000190735,139.16093466135
1.1074999570847,137.93264476341
1.1100000143051,136.94554482639
1.1124999523163,136.21105670425
1.1150000095367,135.73556268152
1.1174999475479,135.51885668331
1.1200000047684,135.55218717450
1.1224999427795,135.81610723944
1.1250000000000,136.27935674267
1.1275000572205,136.89904423835
1.1299999952316,137.62217052930
1.1325000524521,138.38884952481
1.1349999904633,139.13655951419
1.1375000476837,139.80510215922
1.1399999856949,140.34157194981
1.1425000429153,140.70264130976
1.1449999809265,140.85689502439
1.1475000381470,140.78454877480
1.1499999761581,140.47642615067
1.1525000333786,139.93224814716
1.1549999713898,139.15803522259
1.1575000286102,138.16476373806
1.1599999666214,136.96625811753
1.1625000238419,135.57814192835
1.1649999618530,134.01637906466
1.1675000190735,132.29719139673
1.1699999570847,130.43599431463
1.1725000143051,128.44747915162
1.1749999523163,126.34541894179
1.1775000095367,124.14265725506
1.1799999475479,121.85077315988
1.1825000047684,119.48064302314
1.1849999427795,117.04215591543
1.1875000000000,114.54438292484
1.1900000572205,111.99541190857
1.1924999952316,109.40294465513
1.1950000524521,106.77392206246
1.1974999904633,104.11462944288
1.2000000476837,101.43096579506
1.2024999856949,98.728233689819
1.2050000429153,96.011238903602
1.2074999809265,93.284572601107
1.2100000381470,90.552114464927
1.2124999761581,87.817689372806
1.2150000333786,85.084520657305
1.2174999713898,82.355559339052
1.2200000286102,79.633265565791
1.2224999666214,76.919930877377
1.2250000238419,74.217362210855
1.2274999618530,71.526977138548
1.2300000190735,68.850092205655
1.2324999570847,66.187407718694
1.2350000143051,63.539320067531
1.2374999523163,60.906086338502
1.2400000095367,58.287556926597
1.2424999475479,55.683287827380
1.2450000047684,53.092677081247
1.2474999427795,50.514692154349
1.2500000000000,47.948341893860
1.2525000572205,45.392487346609
1.2549999952316,42.845645319759
1.2575000524521,40.306511674345
1.2599999904633,37.773766160835
1.2625000476837,35.245942282155
1.2649999856949,32.721721661680
1.2675000429153,30.200068081677
1.2699999809265,27.679894120017
1.2725000381470,25.160322779514
1.2749999761581,22.640746154245
1.2775000333786,20.120732291058
1.2799999713898,17.600121022207
1.2825000286102,15.078906851975
1.2849999666214,12.557365242834
1.2875000238419,10.036096179547
1.2899999618530,7.5157015371306
1.2925000190735,4.9972194357913
1.2949999570847,2.4816333432109
1.2975000143051,-0.029799660098448
1.2999999523163,-2.5356049796043
1.3025000095367,-5.0343612379996
1.3049999475479,-7.5245392154798
1.3075000047684,-10.004552897729
1.3099999427795,-12.472765831838
1.3125000000000,-14.927643722386
1.3150000572205,-17.367606200119
1.3174999952316,-19.791175892812
1.3200000524521,-22.196877837430
1.3224999904633,-24.583346972295
1.3250000476837,-26.949376827383
1.3274999856949,-29.293827824489
1.3300000429153,-31.615544019533
1.3324999809265,-33.913548400152
1.3350000381470,-36.187017692023
1.3374999761581,-38.434807291714
1.3400000333786,-40.656362846812
1.3424999713898,-42.850713621585
1.3450000286102,-45.016815453633
1.3474999666214,-47.153894747622
1.3500000238419,-49.260874178240
1.3524999618530,-51.336323910603
1.3550000190735,-53.378879891647
1.3574999570847,-55.387063177005
1.3600000143051,-57.359019086444
1.3624999523163,-59.292344791579
1.3650000095367,-61.184909170878
1.3674999475479,-63.034033365558
1.3700000047684,-64.836931607066
1.3724999427795,-66.590102946971
1.3750000000000,-68.290381475311
1.3775000572205,-69.934326628353
1.3799999952316,-71.518329310905
1.3825000524521,-73.038837756600
1.3849999904633,-74.492304017323
1.3875000476837,-75.875717766460
1.3899999856949,-77.186294543315
1.3925000429153,-78.421518858768
1.3949999809265,-79.580084057516
1.3975000381470,-80.661383809840
1.3999999761581,-81.665586344424
1.4025000333786,-82.594328539251
1.4049999713898,-83.450506410989
1.4075000286102,-84.238163525905
1.4099999666214,-84.962764800334
1.4125000238419,-85.631194935251
1.4149999618530,-86.251266599577
1.4175000190735,-86.831887085061
1.4199999570847,-87.382618936007
1.4225000143051,-87.913406463848
1.4249999523163,-88.434249459042
1.4275000095367,-88.954928388202
1.4299999475479,-89.484732612570
1.4325000047684,-90.032021976700
1.4349999427795,-90.604282506182
1.4375000000000,-91.207962069981
1.4400000572205,-91.848087250755
1.4424999952316,-92.528811182695
1.4450000524521,-93.253248351690
1.4474999904633,-94.023311121810
1.4500000476837,-94.840420352488
1.4524999856949,-95.705341257978
1.4550000429153,-96.618017789662
1.4574999809265,-97.578562481668
1.4600000381470,-98.586532960931
1.4624999761581,-99.641714815796
1.4650000333786,-100.74378083900
1.4674999713898,-101.89240048383
1.4700000286102,-103.08768266217
1.4724999666214,-104.32962996191
1.4750000238419,-105.61856999846
1.4774999618530,-106.95488094930
1.4800000190735,-108.33906095869
1.4824999570847,-109.77154140050
1.4850000143051,-111.25298216771
1.4874999523163,-112.78387509426
1.4900000095367,-114.36454253225
1.4924999475479,-115.99531969169
1.4950000047684,-117.67625357590
1.4974999427795,-119.40724485243
1.5000000000000,-121.18795940752
1.5025000572205,-123.01806578336
1.5049999952316,-124.89658471128
1.5075000524521,-126.82275395191
1.5099999904633,-128.79547664276
1.5125000476837,-130.81355279243
1.5149999856949,-132.87555737297
1.5175000429153,-134.98007481217
1.5199999809265,-137.12574044960
1.5225000381470,-139.31090772921
1.5249999761581,-141.53405367465
1.5275000333786,-143.79375198136
1.5299999713898,-146.08853323003
1.5325000286102,-148.41702453030
1.5349999666214,-150.77786725450
1.5375000238419,-153.16985344041
1.5399999618530,-155.59173006432
1.5425000190735,-158.04251095834
1.5449999570847,-160.52121381345
1.5475000143051,-163.02685460897
1.5499999523163,-165.55845057094
1.5525000095367,-168.11534603978
1.5549999475479,-170.69650080583
1.5575000047684,-173.30126260594
1.5599999427795,-175.92864505468
1.5625000000000,-178.57777481250
1.5650000572205,178.75233155635
1.5674999952316,176.06254858616
1.5700000524521,173.35418709181
1.5724999904633,170.62845069583
1.5750000476837,167.88653870019
1.5774999856949,165.13009287496
1.5800000429153,162.36058678513
1.5824999809265,159.57977215900
1.5850000381470,156.78955648651
1.5874999761581,153.99202408569
1.5900000333786,151.18923825944
1.5924999713898,148.38350583255
1.5950000286102,145.57722988338
1.5974999666214,142.77291527809
1.6000000238419,139.97308536399
1.6024999618530,137.18057639735
1.6050000190735,134.39812357586
1.6074999570847,131.62845053577
1.6100000143051,128.87440960653
1.6124999523163,126.13894727680
1.6150000095367,123.42490204195
1.6174999475479,120.73512038984
1.6200000047684,118.07243907395
1.6224999427795,115.43948122784
1.6250000000000,112.83898376636
1.6275000572205,110.27356478555
1.6299999952316,107.74584763021
1.6325000524521,105.25791149164
1.6349999904633,102.81226643225
1.6375000476837,100.41088131267
1.6399999856949,98.055941041754
1.6425000429153,95.749304606246
1.6449999809265,93.492719325365
1.6475000381470,91.288262367080
1.6499999761581,89.137462918186
1.6525000333786,87.042398155600
1.6549999713898,85.004597140745
1.6575000286102,83.026465220351
1.6599999666214,81.110078209091
1.6625000238419,79.257839874283
1.6649999618530,77.472373694120
1.6675000190735,75.757177578896
1.6699999570847,74.115746108891
1.6725000143051,72.551906147947
1.6749999523163,71.070464472007
1.6775000095367,69.676451855996
1.6799999475479,68.375218284333
1.6825000047684,67.172995277945
1.6849999427795,66.075901889083
1.6875000000000,65.090388831773
1.6900000572205,64.222680831985
1.6924999952316,63.478792480988
1.6950000524521,62.863526982516
1.6974999904633,62.381043233725
1.7000000476837,62.033085717160
1.7024999856949,61.819329189658
1.7050000429153,61.736493176525
1.7074999809265,61.777363928589
1.7100000381470,61.931233788524
1.7124999761581,62.183240888246
1.7150000333786,62.514261223129
1.7174999713898,62.901996734498
1.7200000286102,63.320767880512
1.7224999666214,63.744021395124
1.7250000238419,64.143998267155
1.7274999618530,64.494359588732
1.7300000190735,64.770407064639
1.7324999570847,64.950614640392
1.7350000143051,65.017168429435
1.7374999523163,64.956189739188
1.7400000095367,64.757730434057
1.7424999475479,64.415240203325
1.7450000047684,63.925868527824
1.7474999427795,63.288966103546
1.7500000000000,62.506062515549
1.7525000572205,61.580655072510
1.7549999952316,60.517111680708
1.7575000524521,59.320244016832
1.7599999904633,57.995734508107
1.7625000476837,56.549483828594
1.7649999856949,54.986737853566
1.7675000429153,53.313395987389
1.7699999809265,51.534811506239
1.7725000381470,49.656019186724
1.7749999761581,47.681929931293
1.7775000333786,45.617356683964
1.7799999713898,43.466450241710
1.7825000286102,41.233793421607
1.7849999666214,38.923112292130
1.7875000238419,36.538448129151
1.7899999618530,34.083625384281
1.7925000190735,31.562137012127
1.7949999570847,28.977701983650
1.7975000143051,26.333490809359
1.7999999523163,23.633326512284
1.8025000095367,20.880158667146
1.8049999475479,18.077377069524
1.8075000047684,15.228150503147
1.8099999427795,12.335537654119
1.8125000000000,9.4025999560975
1.8150000572205,6.4323957656781
1.8174999952316,3.4273317233248
1.8200000524521,0.39068408184160
1.8224999904633,-2.6753604375987
1.8250000476837,-5.7682887378446
1.8274999856949,-8.8856960162668
1.8300000429153,-12.025507655321
1.8324999809265,-15.185535346975
1.8350000381470,-18.364250386083
1.8374999761581,-21.559685763380
1.8400000333786,-24.770532736372
1.8424999713898,-27.995362696774
1.8450000286102,-31.233092262839
1.8474999666214,-34.483059716464
1.8500000238419,-37.743956257087
1.8524999618530,-41.015563023358
1.8550000190735,-44.297331315795
1.8574999570847,-47.588935190917
1.8600000143051,-50.890266670065
1.8624999523163,-54.201213104854
1.8650000095367,-57.521561775468
1.8674999475479,-60.851960778140
1.8700000047684,-64.192087390405
1.8724999427795,-67.542486510464
1.8750000000000,-70.903268100239
1.8775000572205,-74.274759718513
1.8799999952316,-77.657068122786
1.8825000524521,-81.050524666344
1.8849999904633,-84.455346844015
1.8875000476837,-87.871533920102
1.8899999856949,-91.299414513010
1.8925000429153,-94.738879363192
1.8949999809265,-98.189927459222
1.8975000381470,-101.65256029040
1.8999999761581,-105.12677681112
1.9025000333786,-108.61246999134
1.9049999713898,-112.10941632297
1.9075000286102,-115.61750932895
1.9099999666214,-119.13686004507
1.9125000238419,-122.66746880115
1.9149999618530,-126.20943909883
1.9175000190735,-129.76288657552
1.9199999570847,-133.32846274740
1.9225000143051,-136.90639119830
1.9249999523163,-140.49764948802
1.9275000095367,-144.10322355419
1.9299999475479,-147.72442644508
1.9325000047684,-151.36289531451
1.9349999427795,-155.02048922691
1.9375000000000,-158.69972032627
1.9400000572205,-162.40310489262
1.9424999952316,-166.13370016535
1.9450000524521,-169.89511073044
1.9474999904633,-173.69149475182
1.9500000476837,-177.52700101444
1.9524999856949,178.59323286254
1.9550000429153,174.66396190029
1.9574999809265,170.67917453188
1.9600000381470,166.63231437534
1.9624999761581,162.51627774060
1.9650000333786,158.32308794716
1.9674999713898,154.04444011798
1.9700000286102,149.67038909792
1.9724999666214,145.19065819931
1.9750000238419,140.59301039063
1.9774999618530,135.86411557206
1.9800000190735,130.98845344580
1.9824999570847,125.94799483014
1.9850000143051,120.72219025005
1.9874999523163,115.28633920437
1.9900000095367,109.61181856063
1.9924999475479,103.66409137445
1.9950000047684,97.402718918083
1.9974999427795,90.779840225629
2.0000000000000,83.739171941565
2.0025000572205,76.217221779540
2.0050001144409,68.144265258909
2.0074999332428,59.449926367337
2.0099999904633,50.073222711290
2.0125000476837,39.979735262406
2.0150001049042,29.185410207708
