frequency,phase
1.0000000000000,163.46773780897
1.0019999742508,160.92862830122
1.0039999485016,158.39581801426
1.0060000419617,155.87024362273
1.0080000162125,153.35288160374
1.0099999904633,150.84472730314
1.0119999647141,148.34670787583
1.0140000581741,145.85979778745
1.0160000324249,143.38493296347
1.0180000066757,140.92305702726
1.0199999809265,138.47509232009
1.0219999551773,136.04192130903
1.0240000486374,133.62438594438
1.0260000228882,131.22336844514
1.0279999971390,128.83967372217
1.0299999713898,126.47403798071
1.0319999456406,124.12722396250
1.0340000391006,121.79989580501
1.0360000133514,119.49268450331
1.0379999876022,117.20618329773
1.0399999618530,114.94088096873
1.0420000553131,112.69723286232
1.0440000295639,110.47560550159
1.0460000038147,108.27629767765
1.0479999780655,106.09951127571
1.0499999523163,103.94537080021
1.0520000457764,101.81390802131
1.0540000200272,99.705051853326
1.0559999942780,97.618641819078
1.0579999685287,95.554394473612
1.0599999427795,93.511949110345
1.0620000362396,91.490807384542
1.0640000104904,89.490381589168
1.0659999847412,87.509988654467
1.0679999589920,85.548822810881
1.0700000524521,83.606003383402
1.0720000267029,81.680537960188
1.0740000009537,79.771362992238
1.0759999752045,77.877325098022
1.0779999494553,75.997214099839
1.0800000429153,74.129758325339
1.0820000171661,72.273632785303
1.0839999914169,70.427492903773
1.0859999656677,68.589974795755
1.0880000591278,66.759688944318
1.0900000333786,64.935270186630
1.0920000076294,63.115359465081
1.0939999818802,61.298651675809
1.0959999561310,59.483885538011
1.0980000495911,57.669827824404
1.1000000238419,55.855347173860
1.1019999980927,54.039379304988
1.1039999723434,52.220950848464
1.1059999465942,50.399175532570
1.1080000400543,48.573274034082
1.1100000143051,46.742571761875
1.1119999885559,44.906495851690
1.1139999628067,43.064586784872
1.1160000562668,41.216481316563
1.1180000305176,39.361951869385
1.1200000047684,37.500845631743
1.1219999790192,35.633122545972
1.1239999532700,33.758848188180
1.1260000467300,31.878183351084
1.1280000209808,29.991367223593
1.1299999952316,28.098714828945
1.1319999694824,26.200639073304
1.1339999437332,24.297614429992
1.1360000371933,22.390166601871
1.1380000114441,20.478897903268
1.1399999856949,18.564441768694
1.1419999599457,16.647487189795
1.1440000534058,14.728757628107
1.1460000276566,12.809002740531
1.1480000019073,10.888995346981
1.1499999761581,8.9695268548578
1.1519999504089,7.0513970945813
1.1540000438690,5.1354102630287
1.1560000181198,3.2223675311837
1.1579999923706,1.3130352029431
1.1599999666214,-0.59172824438669
1.1619999408722,-2.4912449504931
1.1640000343323,-4.3847557835088
1.1660000085831,-6.2715599497147
1.1679999828339,-8.1509939076252
1.1699999570847,-10.022436123282
1.1720000505447,-11.885313016472
1.1740000247955,-13.739100188162
1.1759999990463,-15.583333208621
1.1779999732971,-17.417601096860
1.1799999475479,-19.241569707339
1.1820000410080,-21.054960745410
1.1840000152588,-22.857572281020
1.1859999895096,-24.649277451075
1.1879999637604,-26.430021241420
1.1900000572205,-28.199822703745
1.1920000314713,-29.958788465832
1.1940000057220,-31.707088335548
1.1959999799728,-33.444976562029
1.1979999542236,-35.172775817449
1.2000000476837,-36.890884057693
1.2020000219345,-38.599764692429
1.2039999961853,-40.299949800844
1.2059999704361,-41.992012539189
1.2079999446869,-43.676596617850
1.2100000381470,-45.354365946882
1.2120000123978,-47.026044956500
1.2139999866486,-48.692374440028
1.2159999608994,-50.354105841356
1.2180000543594,-52.012016886682
1.2200000286102,-53.666871248347
1.2220000028610,-55.319431607646
1.2239999771118,-56.970440885681
1.2259999513626,-58.620590535618
1.2280000448227,-60.270585767977
1.2300000190735,-61.921039804833
1.2319999933243,-63.572525659506
1.2339999675751,-65.225562567287
1.2359999418259,-66.880597323958
1.2380000352859,-68.538005535342
1.2400000095367,-70.198075550772
1.2419999837875,-71.861013097403
1.2439999580383,-73.526973138014
1.2460000514984,-75.195969662424
1.2480000257492,-76.867959338446
1.2500000000000,-78.542796606404
1.2519999742508,-80.220264473961
1.2539999485016,-81.900047286377
1.2560000419617,-83.581728746617
1.2580000162125,-85.264810165174
1.2599999904633,-86.948731676800
1.2619999647141,-88.632824028463
1.2640000581741,-90.316376882069
1.2660000324249,-91.998563826508
1.2680000066757,-93.678523813425
1.2699999809265,-95.355328596838
1.2719999551773,-97.027973223496
1.2740000486374,-98.695427982233
1.2760000228882,-100.35658443394
1.2779999971390,-102.01031616761
1.2799999713898,-103.65545537088
1.2819999456406,-105.29080817845
1.2840000391006,-106.91515006095
1.2860000133514,-108.52726602937
1.2879999876022,-110.12592046689
1.2899999618530,-111.70987564277
1.2920000553131,-113.27792919350
1.2940000295639,-114.82888026461
1.2960000038147,-116.36158906926
1.2979999780655,-117.87494105899
1.2999999523163,-119.36788193450
1.3020000457764,-120.83943237262
1.3040000200272,-122.28870538890
1.3059999942780,-123.71487390905
1.3079999685287,-125.11729080608
1.3099999427795,-126.49535121711
1.3120000362396,-127.84862993266
1.3140000104904,-129.17686845217
1.3159999847412,-130.47991951685
1.3179999589920,-131.75785868977
1.3200000524521,-133.01089949110
1.3220000267029,-134.23948813689
1.3240000009537,-135.44421021510
1.3259999752045,-136.62590155701
1.3279999494553,-137.78555785879
1.3300000429153,-138.92433915958
1.3320000171661,-140.04368581898
1.3339999914169,-141.14509482281
1.3359999656677,-142.23024951013
1.3380000591278,-143.30098710917
1.3400000333786,-144.35927280023
1.3420000076294,-145.40707552069
1.3439999818802,-146.44646857768
1.3459999561310,-147.47956513963
1.3480000495911,-148.50843316820
1.3500000238419,-149.53512047805
1.3519999980927,-150.56160228946
1.3539999723434,-151.58972357956
1.3559999465942,-152.62122084270
1.3580000400543,-153.65768730298
1.3600000143051,-154.70049227331
1.3619999885559,-155.75086804304
1.3639999628067,-156.80977724972
1.3660000562668,-157.87800513862
1.3680000305176,-158.95605505892
1.3700000047684,-160.04421339144
1.3719999790192,-161.14256364215
1.3739999532700,-162.25088492533
1.3760000467300,-163.36880913982
1.3780000209808,-164.49566738324
1.3799999952316,-165.63062674224
1.3819999694824,-166.77264797184
1.3839999437332,-167.92047312915
1.3860000371933,-169.07268529006
1.3880000114441,-170.22775261999
1.3899999856949,-171.38391324592
1.3919999599457,-172.53933455496
1.3940000534058,-173.69205185140
1.3960000276566,-174.83998847791
1.3980000019073,-175.98105337353
1.3999999761581,-177.11302047629
1.4019999504089,-178.23363621933
1.4040000438690,-179.34070050832
1.4060000181198,179.56808113235
1.4079999923706,178.49492189281
1.4099999666214,177.44199338415
1.4119999408722,176.41137299492
1.4140000343323,175.40508076630
1.4160000085831,174.42494883043
1.4179999828339,173.47262864802
1.4199999570847,172.54963834867
1.4220000505447,171.65717865867
1.4240000247955,170.79621944082
1.4259999990463,169.96743144038
1.4279999732971,169.17109940076
1.4299999475479,168.40718273874
1.4320000410080,167.67519164740
1.4340000152588,166.97426467071
1.4359999895096,166.30311571724
1.4379999637604,165.65998554986
1.4400000572205,165.04271527105
1.4420000314713,164.44865196511
1.4440000057220,163.87492931453
1.4459999799728,163.31815938780
1.4479999542236,162.77470937893
1.4500000476837,162.24083383331
1.4520000219345,161.71250613429
1.4539999961853,161.18559659730
1.4559999704361,160.65611961691
1.4579999446869,160.12007300687
1.4600000381470,159.57363035525
1.4620000123978,159.01314765538
1.4639999866486,158.43543511046
1.4659999608994,157.83750722615
1.4680000543594,157.21689994440
1.4700000286102,156.57148926057
1.4720000028610,155.89967107232
1.4739999771118,155.20037162944
1.4759999513626,154.47283421854
1.4780000448227,153.71690521469
1.4800000190735,152.93278947658
1.4819999933243,152.12119738548
1.4839999675751,151.28321656667
1.4859999418259,150.42027664230
1.4880000352859,149.53416625179
1.4900000095367,148.62694546754
1.4919999837875,147.70106976944
1.4939999580383,146.75911885387
1.4960000514984,145.80391648410
1.4980000257492,144.83845624331
1.5000000000000,143.86601296519
1.5019999742508,142.88981590776
1.5039999485016,141.91336912758
1.5060000419617,140.94010968939
1.5080000162125,139.97362389098
1.5099999904633,139.01743815110
1.5119999647141,138.07524061833
1.5140000581741,137.15053140984
1.5160000324249,136.24678618224
1.5180000066757,135.36745394873
1.5199999809265,134.51573026498
1.5219999551773,133.69475456257
1.5240000486374,132.90727546537
1.5260000228882,132.15592789634
1.5279999971390,131.44292381449
1.5299999713898,130.77005433849
1.5319999456406,130.13869971858
1.5340000391006,129.54966456065
1.5360000133514,129.00321998528
1.5379999876022,128.49901853955
1.5399999618530,128.03593074526
1.5420000553131,127.61221179586
1.5440000295639,127.22532265311
1.5460000038147,126.87206420817
1.5479999780655,126.54847957318
1.5499999523163,126.24994682806
1.5520000457764,125.97132696341
1.5540000200272,125.70699678324
1.5559999942780,125.45086936435
1.5579999685287,125.19675654393
1.5599999427795,124.93832862710
1.5620000362396,124.66940999773
1.5640000104904,124.38396374955
1.5659999847412,124.07633286641
1.5679999589920,123.74140748497
1.5700000524521,123.37459876732
1.5720000267029,122.97197330362
1.5740000009537,122.53041232379
1.5759999752045,122.04743778891
1.5779999494553,121.52137721402
1.5800000429153,120.95130247512
1.5820000171661,120.33699466032
1.5839999914169,119.67883797416
1.5859999656677,118.97795202011
1.5880000591278,118.23591933195
1.5900000333786,117.45484575884
1.5920000076294,116.63732623987
1.5939999818802,115.78631211301
1.5959999561310,114.90508069216
1.5980000495911,113.99724116673
1.6000000238419,113.06661348204
1.6019999980927,112.11724415998
1.6039999723434,111.15331438131
1.6059999465942,110.17922010281
1.6080000400543,109.19936084920
1.6100000143051,108.21832705800
1.6119999885559,107.24073563110
1.6139999628067,106.27112285227
1.6160000562668,105.31429426796
1.6180000305176,104.37473397822
1.6200000047684,103.45708415961
1.6219999790192,102.56579870923
1.6239999532700,101.70522315383
1.6260000467300,100.87958836329
1.6280000209808,100.09275119632
1.6299999952316,99.348424260495
1.6319999694824,98.649778324146
1.6339999437332,97.999735732923
1.6360000371933,97.400482032227
1.6380000114441,96.853711601591
1.6399999856949,96.360298395096
1.6419999599457,95.920325708452
1.6440000534058,95.532999127338
1.6460000276566,95.196571027156
1.6480000019073,94.908200376532
1.6499999761581,94.664062254688
1.6519999504089,94.459266047354
1.6540000438690,94.287992048988
1.6560000181198,94.143465169399
1.6579999923706,94.018254094063
1.6599999666214,93.904271819266
1.6619999408722,93.793131342096
1.6640000343323,93.676170881945
1.6660000085831,93.544976736625
1.6679999828339,93.391379545811
1.6699999570847,93.207701932934
1.6720000505447,92.987059488889
1.6740000247955,92.723305050723
1.6759999990463,92.411356735992
1.6779999732971,92.047143595010
1.6799999475479,91.627606127701
1.6820000410080,91.150749620449
1.6840000152588,90.615563284087
1.6859999895096,90.021992525680
1.6879999637604,89.370829579896
1.6900000572205,88.663604532568
1.6920000314713,87.902584795915
1.6940000057220,87.090584633321
1.6959999799728,86.230964231282
1.6979999542236,85.327384972136
1.7000000476837,84.384053980185
1.7020000219345,83.405369553269
1.7039999961853,82.395895043366
1.7059999704361,81.360493346645
1.7079999446869,80.304163395897
1.7100000381470,79.232014982942
1.7120000123978,78.149293320511
1.7139999866486,77.061216763256
1.7159999608994,75.973194539144
1.7180000543594,74.890555202840
1.7200000286102,73.818789379373
1.7220000028610,72.763225663258
1.7239999771118,71.729243620306
1.7259999513626,70.722255728033
1.7280000448227,69.747397276458
1.7300000190735,68.809883941309
1.7319999933243,67.914529615667
1.7339999675751,67.066000482619
1.7359999418259,66.268670567938
1.7380000352859,65.526392985268
1.7400000095367,64.842553823003
1.7419999837875,64.219777727816
1.7439999580383,63.660057837826
1.7460000514984,63.164294069964
1.7480000257492,62.732519143161
1.7500000000000,62.363443268157
1.7519999742508,62.054580855144
1.7539999485016,61.802027597550
1.7560000419617,61.600565823376
1.7580000162125,61.443550949586
1.7599999904633,61.323066123252
1.7619999647141,61.230096706849
1.7640000581741,61.154662464308
1.7660000324249,61.086087277897
1.7680000066757,61.013360294900
1.7699999809265,60.925442822800
1.7719999551773,60.811595554195
1.7740000486374,60.661631520919
1.7760000228882,60.466260626143
1.7779999971390,60.217368896429
1.7799999713898,59.907987865535
1.7819999456406,59.532602374353
1.7840000391006,59.086974015750
1.7860000133514,58.568343338906
1.7879999876022,57.975073030228
1.7899999618530,57.306917948218
1.7920000553131,56.564585218560
1.7940000295639,55.749770019034
1.7960000038147,54.864931939272
1.7979999780655,53.913324804975
1.7999999523163,52.898686223728
1.8020000457764,51.825224215513
1.8040000200272,50.697561708798
1.8059999942780,49.520612583473
1.8079999685287,48.299453780205
1.8099999427795,47.039450308078
1.8120000362396,45.746083229964
1.8140000104904,44.424988983708
1.8159999847412,43.081764023964
1.8179999589920,41.722281407973
1.8200000524521,40.352421716565
1.8220000267029,38.978158114351
1.8240000009537,37.605539659088
1.8259999752045,36.240726121288
1.8279999494553,34.889961113421
1.8300000429153,33.559662200087
1.8320000171661,32.256298224136
1.8339999914169,30.986318251016
1.8359999656677,29.756447427293
1.8380000591278,28.573294597857
1.8400000333786,27.443554065036
1.8420000076294,26.373781820696
1.8439999818802,25.370425804096
1.8459999561310,24.439663671349
1.8480000495911,23.587227679400
1.8500000238419,22.818231373539
1.8519999980927,22.137069293048
1.8539999723434,21.546888608544
1.8559999465942,21.049676737282
1.8580000400543,20.645685283038
1.8600000143051,20.333191382670
1.8619999885559,20.108340631738
1.8639999628067,19.964743224268
1.8660000562668,19.893544261062
1.8680000305176,19.883326979550
1.8700000047684,19.920181584149
1.8719999790192,19.988128911990
1.8739999532700,20.069628085436
1.8760000467300,20.145932588629
1.8780000209808,20.198142799785
1.8799999952316,20.207651823066
1.8819999694824,20.156833113737
1.8839999437332,20.029766194736
1.8860000371933,19.812647226263
1.8880000114441,19.494033254516
1.8899999856949,19.064905319974
1.8919999599457,18.518791508312
1.8940000534058,17.851589294238
1.8960000276566,17.061229718337
1.8980000019073,16.147432613624
1.8999999761581,15.111566235063
1.9019999504089,13.956170215704
1.9040000438690,12.684717154055
1.9060000181198,11.301385780004
1.9079999923706,9.8108467822158
1.9099999666214,8.2180198083843
1.9119999408722,6.5280386360157
1.9140000343323,4.7460426703288
1.9160000085831,2.8770841014386
1.9179999828339,0.92616360123365
1.9199999570847,-1.1019926631423
1.9220000505447,-3.2027677553841
1.9240000247955,-5.3718167684342
1.9259999990463,-7.6050705169579
1.9279999732971,-9.8985932987414
1.9299999475479,-12.248807064964
1.9320000410080,-14.652322762990
1.9340000152588,-17.105920043722
1.9359999895096,-19.606750401070
1.9379999637604,-22.152008400171
1.9400000572205,-24.739201036093
1.9420000314713,-27.365956181933
1.9440000057220,-30.030166323586
1.9459999799728,-32.729811277615
1.9479999542236,-35.463090875744
1.9500000476837,-38.228333412051
1.9520000219345,-41.023984361124
1.9539999961853,-43.848705758244
1.9559999704361,-46.701155434630
1.9579999446869,-49.580324494406
1.9600000381470,-52.485178641728
1.9620000123978,-55.414812504562
1.9639999866486,-58.368567118016
1.9659999608994,-61.345764069167
1.9680000543594,-64.345937314725
1.9700000286102,-67.368733934453
1.9720000028610,-70.413986543430
1.9739999771118,-73.481615724682
1.9759999513626,-76.571703910232
1.9780000448227,-79.684575774467
1.9800000190735,-82.820697782166
1.9819999933243,-85.980780822276
1.9839999675751,-89.165780054012
1.9859999418259,-92.376979857756
1.9880000352859,-95.615991937322
1.9900000095367,-98.884839187138
1.9919999837875,-102.18600541163
1.9939999580383,-105.52268972958
1.9960000514984,-108.89866152921
1.9980000257492,-112.31878206817
2.0000000000000,-115.78890068818
2.0020000934601,-119.31628425412
2.0039999485016,-122.91022080971
2.0060000419617,-126.58218446802
2.0079998970032,-130.34704128070
2.0099999904633,-134.22358364695
2.0120000839233,-138.23656480800
2.0139999389648,-142.41844421398
2.0160000324249,-146.81298648305
2.0179998874664,-151.47986425689
2.0199999809265,-156.50223923514
2.0220000743866,-161.99851762963
2.0239999294281,-168.14093573981
2.0260000228882,-175.18422587328
2.0280001163483,176.49086598115
2.0299999713898,166.32634240237
2.0320000648499,153.57831275012
2.0339999198914,137.54354500051
2.0360000133514,118.36234864651
2.0380001068115,97.998932653121
2.0399999618530,79.375138271230
2.0420000553131,64.074256050789
2.0439999103546,51.976078823878
2.0460000038147,42.327973809942
2.0480000972748,34.417192717458
2.0499999523163,27.724756672466
2.0520000457764,21.899314803601
2.0539999008179,16.705802694551
2.0559999942780,11.985322703918
2.0580000877380,7.6279902065000
2.0599999427795,3.5569786292628
2.0620000362396,-0.28317234611237
2.0639998912811,-3.9327879515741
2.0659999847412,-7.4217579527250
2.0680000782013,-10.772375096287
2.0699999332428,-14.001743545456
2.0720000267029,-17.122813823811
2.0739998817444,-20.145198408092
2.0759999752045,-23.076605111026
2.0780000686646,-25.922610258288
2.0799999237061,-28.687358988931
2.0820000171661,-31.374138914430
2.0840001106262,-33.984853339005
2.0859999656677,-36.520988310893
2.0880000591278,-38.983186340047
2.0899999141693,-41.371732090976
2.0920000076294,-43.686456693672
2.0940001010895,-45.926757766154
2.0959999561310,-48.091874403736
2.0980000495911,-50.180821289701
2.0999999046326,-52.192556619899
2.1019999980927,-54.125934361808
2.1040000915527,-55.979700208423
2.1059999465942,-57.753039700060
2.1080000400543,-59.445014681065
2.1099998950958,-61.054971749586
2.1119999885559,-62.582967737926
2.1140000820160,-64.029054185702
2.1159999370575,-65.394055893043
2.1180000305176,-66.679439394739
2.1199998855591,-67.887403321279
2.1219999790192,-69.020830039393
2.1240000724792,-70.083498780689
2.1259999275208,-71.080049385963
2.1280000209808,-72.016115381871
2.1300001144409,-72.897919565354
2.1319999694824,-73.732677242572
2.1340000629425,-74.528147379728
2.1359999179840,-75.292529276103
2.1380000114441,-76.034614884218
2.1400001049042,-76.763205098550
2.1419999599457,-77.487040969955
2.1440000534058,-78.214701137812
2.1459999084473,-78.954329270257
2.1480000019073,-79.713518989856
2.1500000953674,-80.498880245456
2.1519999504089,-81.316645176192
2.1540000438690,-82.171731240620
2.1559998989105,-83.068233771049
2.1579999923706,-84.009489202193
2.1600000858307,-84.997680447391
2.1619999408722,-86.034284863630
2.1640000343323,-87.119738421327
2.1659998893738,-88.254041832524
2.1679999828339,-89.436265566035
2.1700000762939,-90.665153173599
2.1719999313354,-91.939065598373
2.1740000247955,-93.255488533500
2.1760001182556,-94.612182986616
2.1779999732971,-96.006087984817
2.1800000667572,-97.434308310373
2.1819999217987,-98.893673499341
2.1840000152588,-100.38096063796
2.1860001087189,-101.89267250658
2.1879999637604,-103.42564035487
2.1900000572205,-104.97631183353
2.1919999122620,-106.54135339406
2.1940000057220,-108.11732510995
2.1960000991821,-109.70094540975
2.1979999542236,-111.28866356592
2.2000000476837,-112.87769299890
2.2019999027252,-114.46448198910
2.2039999961853,-116.04602480533
2.2060000896454,-117.61937328632
2.2079999446869,-119.18152080783
2.2100000381470,-120.72973366497
2.2119998931885,-122.26133595532
2.2139999866486,-123.77364781161
2.2160000801086,-125.26437759088
2.2179999351501,-126.73133694383
2.2200000286102,-128.17223313859
2.2219998836517,-129.58543040511
2.2239999771118,-130.96911556916
2.2260000705719,-132.32214749709
2.2279999256134,-133.64316098364
2.2300000190735,-134.93161016100
