frequency,phase
1.0000000000000,45.692132823529
1.0019999742508,43.143648968527
1.0039999485016,40.625817224704
1.0060000419617,38.138413158072
1.0080000162125,35.681128120660
1.0099999904633,33.253589987820
1.0119999647141,30.855369097438
1.0140000581741,28.485959492463
1.0160000324249,26.144799972484
1.0180000066757,23.831268344750
1.0199999809265,21.544686207036
1.0219999551773,19.284324680269
1.0240000486374,17.049416004307
1.0260000228882,14.839146157772
1.0279999971390,12.652671660318
1.0299999713898,10.489121532198
1.0319999456406,8.3475978422064
1.0340000391006,6.2271949051333
1.0360000133514,4.1269908167650
1.0379999876022,2.0460651752537
1.0399999618530,-0.016504050313502
1.0420000553131,-2.0616294669708
1.0440000295639,-4.0902131740603
1.0460000038147,-6.1031409434597
1.0479999780655,-8.1012784721256
1.0499999523163,-10.085470195168
1.0520000457764,-12.056534174350
1.0540000200272,-14.015265105528
1.0559999942780,-15.962429099586
1.0579999685287,-17.898764651208
1.0599999427795,-19.824977835442
1.0620000362396,-21.741762977217
1.0640000104904,-23.649776055072
1.0659999847412,-25.549650661554
1.0679999589920,-27.442008043229
1.0700000524521,-29.327435451106
1.0720000267029,-31.206512996777
1.0740000009537,-33.079809411038
1.0759999752045,-34.947861799945
1.0779999494553,-36.811209036589
1.0800000429153,-38.670389616590
1.0820000171661,-40.525912630454
1.0839999914169,-42.378288393502
1.0859999656677,-44.228025236028
1.0880000591278,-46.075623769570
1.0900000333786,-47.921571084732
1.0920000076294,-49.766355258830
1.0939999818802,-51.610442922761
1.0959999561310,-53.454345566822
1.0980000495911,-55.298460204867
1.1000000238419,-57.143277530884
1.1019999980927,-58.989229172615
1.1039999723434,-60.836699607547
1.1059999465942,-62.686097874986
1.1080000400543,-64.537843069264
1.1100000143051,-66.392211019057
1.1119999885559,-68.249599979154
1.1139999628067,-70.110286625204
1.1160000562668,-71.974546199250
1.1180000305176,-73.842589492329
1.1200000047684,-75.714661050020
1.1219999790192,-77.590908564995
1.1239999532700,-79.471498057399
1.1260000467300,-81.356507051851
1.1280000209808,-83.246004072196
1.1299999952316,-85.140077159633
1.1319999694824,-87.038664823304
1.1339999437332,-88.941773962308
1.1360000371933,-90.849336475605
1.1380000114441,-92.761229511827
1.1399999856949,-94.677398098499
1.1419999599457,-96.597685059168
1.1440000534058,-98.521913825073
1.1460000276566,-100.44989059002
1.1480000019073,-102.38144123046
1.1499999761581,-104.31631068959
1.1519999504089,-106.25436435183
1.1540000438690,-108.19531238106
1.1560000181198,-110.13891879846
1.1579999923706,-112.08498951887
1.1599999666214,-114.03327315602
1.1619999408722,-115.98353713216
1.1640000343323,-117.93556371621
1.1660000085831,-119.88916306831
1.1679999828339,-121.84412645797
1.1699999570847,-123.80026449906
1.1720000505447,-125.75742836825
1.1740000247955,-127.71545364806
1.1759999990463,-129.67421505398
1.1779999732971,-131.63357752355
1.1799999475479,-133.59344460550
1.1820000410080,-135.55376422403
1.1840000152588,-137.51448089408
1.1859999895096,-139.47551239574
1.1879999637604,-141.43683865993
1.1900000572205,-143.39847003105
1.1920000314713,-145.36038749558
1.1940000057220,-147.32260572938
1.1959999799728,-149.28512541718
1.1979999542236,-151.24796798122
1.2000000476837,-153.21119874516
1.2020000219345,-155.17479473654
1.2039999961853,-157.13878713968
1.2059999704361,-159.10320523970
1.2079999446869,-161.06805875121
1.2100000381470,-163.03330879783
1.2120000123978,-164.99895609185
1.2139999866486,-166.96498440337
1.2159999608994,-168.93128645483
1.2180000543594,-170.89780775960
1.2200000286102,-172.86443816828
1.2220000028610,-174.83104071435
1.2239999771118,-176.79743849259
1.2259999513626,-178.76344018754
1.2280000448227,179.27115913387
1.2300000190735,177.30664653292
1.2319999933243,175.34330873972
1.2339999675751,173.38145992703
1.2359999418259,171.42148194965
1.2380000352859,169.46373118040
1.2400000095367,167.50865881872
1.2419999837875,165.55670000404
1.2439999580383,163.60836106637
1.2460000514984,161.66410610887
1.2480000257492,159.72451149888
1.2500000000000,157.79009056344
1.2519999742508,155.86143884368
1.2539999485016,153.93913402946
1.2560000419617,152.02377351561
1.2580000162125,150.11596293931
1.2599999904633,148.21630902436
1.2619999647141,146.32544246650
1.2640000581741,144.44393983934
1.2660000324249,142.57241540905
1.2680000066757,140.71147743208
1.2699999809265,138.86165511573
1.2719999551773,137.02349921102
1.2740000486374,135.19754681058
1.2760000228882,133.38428214238
1.2779999971390,131.58414447976
1.2799999713898,129.79754257724
1.2819999456406,128.02489195213
1.2840000391006,126.26644679702
1.2860000133514,124.52253171358
1.2879999876022,122.79335068469
1.2899999618530,121.07905289900
1.2920000553131,119.37975807831
1.2940000295639,117.69551361887
1.2960000038147,116.02632592441
1.2979999780655,114.37210881057
1.2999999523163,112.73275323860
1.3020000457764,111.10807077000
1.3040000200272,109.49786795597
1.3059999942780,107.90184327916
1.3079999685287,106.31972418617
1.3099999427795,104.75115867238
1.3120000362396,103.19573265933
1.3140000104904,101.65312173020
1.3159999847412,100.12285980542
1.3179999589920,98.604562551199
1.3200000524521,97.097849499005
1.3220000267029,95.602229413411
1.3240000009537,94.117428621862
1.3259999752045,92.643063778956
1.3279999494553,91.178780615996
1.3300000429153,89.724305554961
1.3320000171661,88.279447279293
1.3339999914169,86.843987592583
1.3359999656677,85.417844194372
1.3380000591278,84.000989314080
1.3400000333786,82.593314439110
1.3420000076294,81.195010963683
1.3439999818802,79.806161294033
1.3459999561310,78.426981713883
1.3480000495911,77.057720271611
1.3500000238419,75.698729678610
1.3519999980927,74.350341128197
1.3539999723434,73.012989503423
1.3559999465942,71.687141387627
1.3580000400543,70.373259466477
1.3600000143051,69.071862069611
1.3619999885559,67.783443388228
1.3639999628067,66.508546539172
1.3660000562668,65.247610389257
1.3680000305176,64.001154074404
1.3700000047684,62.769620361300
1.3719999790192,61.553353515191
1.3739999532700,60.352663264854
1.3760000467300,59.167788198355
1.3780000209808,57.998923747212
1.3799999952316,56.846126368082
1.3819999694824,55.709363280765
1.3839999437332,54.588445702106
1.3860000371933,53.483106135771
1.3880000114441,52.393006506328
1.3899999856949,51.317604258084
1.3919999599457,50.256279163177
1.3940000534058,49.208308355490
1.3960000276566,48.172902716273
1.3980000019073,47.149085067491
1.3999999761581,46.135869706444
1.4019999504089,45.132186311383
1.4040000438690,44.136890130006
1.4060000181198,43.148863981525
1.4079999923706,42.166982244702
1.4099999666214,41.190071746423
1.4119999408722,40.217017143265
1.4140000343323,39.246777348474
1.4160000085831,38.278391011253
1.4179999828339,37.310964047482
1.4199999570847,36.343781573902
1.4220000505447,35.376163601562
1.4240000247955,34.407584792900
1.4259999990463,33.437780584761
1.4279999732971,32.466473914585
1.4299999475479,31.493635919465
1.4320000410080,30.519405310410
1.4340000152588,29.544082394929
1.4359999895096,28.568020924644
1.4379999637604,27.591849973272
1.4400000572205,26.616252892379
1.4420000314713,25.642050445392
1.4440000057220,24.670141144570
1.4459999799728,23.701538067735
1.4479999542236,22.737306609995
1.4500000476837,21.778566289544
1.4520000219345,20.826440701340
1.4539999961853,19.882041370270
1.4559999704361,18.946577787192
1.4579999446869,18.020979037536
1.4600000381470,17.106307969377
1.4620000123978,16.203465347799
1.4639999866486,15.313247537009
1.4659999608994,14.436278011705
1.4680000543594,13.573051568014
1.4700000286102,12.723922878766
1.4720000028610,11.888945097277
1.4739999771118,11.068120329565
1.4759999513626,10.261119536905
1.4780000448227,9.4674784602223
1.4800000190735,8.6864880356811
1.4819999933243,7.9172995845780
1.4839999675751,7.1587660434177
1.4859999418259,6.4096038067032
1.4880000352859,5.6685002087253
1.4900000095367,4.9338456496314
1.4919999837875,4.2040259077826
1.4939999580383,3.4773483648594
1.4960000514984,2.7521463455463
1.4980000257492,2.0266983492281
1.5000000000000,1.2993378709933
1.5019999742508,0.56853493477669
1.5039999485016,-0.16713106833566
1.5060000419617,-0.90902626780040
1.5080000162125,-1.6581339954010
1.5099999904633,-2.4154380700116
1.5119999647141,-3.1815943250227
1.5140000581741,-3.9570389937510
1.5160000324249,-4.7419640992682
1.5180000066757,-5.5363974042452
1.5199999809265,-6.3399825732322
1.5219999551773,-7.1522564792469
1.5240000486374,-7.9724522895541
1.5260000228882,-8.7996433557464
1.5279999971390,-9.6327347130779
1.5299999713898,-10.470443497728
1.5319999456406,-11.311350009576
1.5340000391006,-12.153867174130
1.5360000133514,-12.996466300345
1.5379999876022,-13.837398611947
1.5399999618530,-14.675053260391
1.5420000553131,-15.507708618743
1.5440000295639,-16.333806454245
1.5460000038147,-17.151708549477
1.5479999780655,-17.960019844073
1.5499999523163,-18.757404496887
1.5520000457764,-19.542819188599
1.5540000200272,-20.315287948604
1.5559999942780,-21.074066480947
1.5579999685287,-21.818775786743
1.5599999427795,-22.549197013922
1.5620000362396,-23.265436996697
1.5640000104904,-23.967880605576
1.5659999847412,-24.657211621653
1.5679999589920,-25.334410813270
1.5700000524521,-26.000707914182
1.5720000267029,-26.657555272802
1.5740000009537,-27.306724022819
1.5759999752045,-27.950127521422
1.5779999494553,-28.589817693369
1.5800000429153,-29.227975201852
1.5820000171661,-29.866842379178
1.5839999914169,-30.508634204674
1.5859999656677,-31.155617482816
1.5880000591278,-31.809813026037
1.5900000333786,-32.473243989152
1.5920000076294,-33.147630777753
1.5939999818802,-33.834582649659
1.5959999561310,-34.535384823111
1.5980000495911,-35.251027858041
1.6000000238419,-35.982293811338
1.6019999980927,-36.729516905855
1.6039999723434,-37.492829104969
1.6059999465942,-38.272019022943
1.6080000400543,-39.066615756231
1.6100000143051,-39.875827089296
1.6119999885559,-40.698540142498
1.6139999628067,-41.533571377968
1.6160000562668,-42.379392413164
1.6180000305176,-43.234312844255
1.6200000047684,-44.096531083460
1.6219999790192,-44.964131533333
1.6239999532700,-45.835113639928
1.6260000467300,-46.707384859895
1.6280000209808,-47.578942159397
1.6299999952316,-48.447745543732
1.6319999694824,-49.311819459173
1.6339999437332,-50.169362691926
1.6360000371933,-51.018599516475
1.6380000114441,-51.858084799943
1.6399999856949,-52.686451163668
1.6419999599457,-53.502630663317
1.6440000534058,-54.305721921305
1.6460000276566,-55.095265340682
1.6480000019073,-55.871148874732
1.6499999761581,-56.633370180804
1.6519999504089,-57.382368533899
1.6540000438690,-58.118964940785
1.6560000181198,-58.844304550429
1.6579999923706,-59.559696410910
1.6599999666214,-60.266977192499
1.6619999408722,-60.968026916641
1.6640000343323,-61.665033809189
1.6660000085831,-62.360400901021
1.6679999828339,-63.056589517712
1.6699999570847,-63.755973596805
1.6720000505447,-64.461232779409
1.6740000247955,-65.174740165460
1.6759999990463,-65.898988054285
1.6779999732971,-66.635909803231
1.6799999475479,-67.387695070271
1.6820000410080,-68.155954081292
1.6840000152588,-68.942081872541
1.6859999895096,-69.747250936581
1.6879999637604,-70.572202534312
1.6900000572205,-71.417424336076
1.6920000314713,-72.282836279133
1.6940000057220,-73.168329531678
1.6959999799728,-74.073357662841
1.6979999542236,-74.996934116240
1.7000000476837,-75.938053426292
1.7020000219345,-76.895208605270
1.7039999961853,-77.866707074808
1.7059999704361,-78.850773856751
1.7079999446869,-79.845386067498
1.7100000381470,-80.848577040255
1.7120000123978,-81.857832262389
1.7139999866486,-82.871213873156
1.7159999608994,-83.886235206618
1.7180000543594,-84.900682325223
1.7200000286102,-85.912369476657
1.7220000028610,-86.919194005059
1.7239999771118,-87.919161387261
1.7259999513626,-88.910467600317
1.7280000448227,-89.891501308848
1.7300000190735,-90.860951099895
1.7319999933243,-91.817696593579
1.7339999675751,-92.760891192477
1.7359999418259,-93.690151806695
1.7380000352859,-94.605315479988
1.7400000095367,-95.506627322956
1.7419999837875,-96.394715822034
1.7439999580383,-97.270537223385
1.7460000514984,-98.135457538056
1.7480000257492,-98.991115938416
1.7500000000000,-99.839534954426
1.7519999742508,-100.68298115345
1.7539999485016,-101.52396909901
1.7560000419617,-102.36517535015
1.7580000162125,-103.20949653913
1.7599999904633,-104.05971776084
1.7619999647141,-104.91873746229
1.7640000581741,-105.78945071661
1.7660000324249,-106.67442383013
1.7680000066757,-107.57622721621
1.7699999809265,-108.49710002400
1.7719999551773,-109.43901119494
1.7740000486374,-110.40359886017
1.7760000228882,-111.39217076038
1.7779999971390,-112.40566230695
1.7799999713898,-113.44456118034
1.7819999456406,-114.50914132877
1.7840000391006,-115.59918600180
1.7860000133514,-116.71414579229
1.7879999876022,-117.85309178192
1.7899999618530,-119.01477086984
1.7920000553131,-120.19776202422
1.7940000295639,-121.40031104149
1.7960000038147,-122.62029018307
1.7979999780655,-123.85557407184
1.7999999523163,-125.10380318115
1.8020000457764,-126.36247209316
1.8040000200272,-127.62895214405
1.8059999942780,-128.90062182807
1.8079999685287,-130.17486588133
1.8099999427795,-131.44888746892
1.8120000362396,-132.72022899997
1.8140000104904,-133.98621807083
1.8159999847412,-135.24461355550
1.8179999589920,-136.49311838333
1.8200000524521,-137.72971222835
1.8220000267029,-138.95275076961
1.8240000009537,-140.16076464709
1.8259999752045,-141.35265848792
1.8279999494553,-142.52772467429
1.8300000429153,-143.68574373921
1.8320000171661,-144.82682010457
1.8339999914169,-145.95167104426
1.8359999656677,-147.06143955891
1.8380000591278,-148.15782208534
1.8400000333786,-149.24305968351
1.8420000076294,-150.31965981435
1.8439999818802,-151.39085243841
1.8459999561310,-152.46018639230
1.8480000495911,-153.53159810679
1.8500000238419,-154.60929027332
1.8519999980927,-155.69764177906
1.8539999723434,-156.80118071933
1.8559999465942,-157.92455552497
1.8580000400543,-159.07224698545
1.8600000143051,-160.24856938518
1.8619999885559,-161.45783975375
1.8639999628067,-162.70372176300
1.8660000562668,-163.98992913352
1.8680000305176,-165.31941063694
1.8700000047684,-166.69479235275
1.8719999790192,-168.11853230598
1.8739999532700,-169.59205007645
1.8760000467300,-171.11671153657
1.8780000209808,-172.69333780138
1.8799999952316,-174.32236534553
1.8819999694824,-176.00368505007
1.8839999437332,-177.73680455988
1.8860000371933,-179.52101384696
1.8880000114441,178.64472519218
1.8899999856949,176.76177873673
1.8919999599457,174.83178563847
1.8940000534058,172.85649542818
1.8960000276566,170.83798218367
1.8980000019073,168.77821714023
1.8999999761581,166.67970856489
1.9019999504089,164.54470002631
1.9040000438690,162.37581558455
1.9060000181198,160.17561935818
1.9079999923706,157.94679389747
1.9099999666214,155.69212155130
1.9119999408722,153.41455263773
1.9140000343323,151.11698587092
1.9160000085831,148.80247937724
1.9179999828339,146.47415164832
1.9199999570847,144.13527862965
1.9220000505447,141.78929932422
1.9240000247955,139.43987673173
1.9259999990463,137.09061801897
1.9279999732971,134.74562301497
1.9299999475479,132.40909665214
1.9320000410080,130.08568546447
1.9340000152588,127.78025141132
1.9359999895096,125.49842201458
1.9379999637604,123.24593651247
1.9400000572205,121.02951199712
1.9420000314713,118.85658296554
1.9440000057220,116.73545364301
1.9459999799728,114.67574050998
1.9479999542236,112.68821206775
1.9500000476837,110.78564805966
1.9520000219345,108.98269844511
1.9539999961853,107.29651405842
1.9559999704361,105.74770103090
1.9579999446869,104.36035331009
1.9600000381470,103.16375803450
1.9620000123978,102.19277960419
1.9639999866486,101.48948811883
1.9659999608994,101.10470190452
1.9680000543594,101.09896556231
1.9700000286102,101.54390967960
1.9720000028610,102.52166601849
1.9739999771118,104.12216979148
1.9759999513626,106.43476441839
1.9780000448227,109.53146148751
1.9800000190735,113.43996874245
1.9819999933243,118.10772021921
1.9839999675751,123.37117262371
1.9859999418259,128.95318774151
1.9880000352859,134.50788091363
1.9900000095367,139.70018720771
1.9919999837875,144.28029588188
1.9939999580383,148.11509149509
1.9960000514984,151.17665665244
1.9980000257492,153.50722405467
2.0000000000000,155.18592075656
2.0020000934601,156.30333903228
2.0039999485016,156.94821801200
2.0060000419617,157.20022728686
2.0079998970032,157.12826365782
2.0099999904633,156.79030621287
2.0120000839233,156.23487508717
2.0139999389648,155.50213407806
2.0160000324249,154.62535365148
2.0179998874664,153.63224514177
2.0199999809265,152.54586157808
2.0220000743866,151.38533170398
2.0239999294281,150.16682500517
2.0260000228882,148.90378684957
2.0280001163483,147.60774514662
2.0299999713898,146.28809789868
2.0320000648499,144.95282198166
2.0339999198914,143.60864108529
2.0360000133514,142.26102111046
2.0380001068115,140.91421488895
2.0399999618530,139.57178067343
2.0420000553131,138.23639585212
2.0439999103546,136.90991842878
2.0460000038147,135.59344164119
2.0480000972748,134.28767438712
2.0499999523163,132.99239613982
2.0520000457764,131.70712083756
2.0539999008179,130.43085495838
2.0559999942780,129.16224484161
2.0580000877380,127.89953392179
2.0599999427795,126.64070026306
2.0620000362396,125.38356403789
2.0639998912811,124.12577282689
2.0659999847412,122.86497498133
2.0680000782013,121.59882209515
2.0699999332428,120.32480021074
2.0720000267029,119.04078065665
2.0739998817444,117.74457186372
2.0759999752045,116.43437979709
2.0780000686646,115.10850366472
2.0799999237061,113.76552469779
2.0820000171661,112.40423946647
2.0840001106262,111.02383054408
2.0859999656677,109.62380613843
2.0880000591278,108.20372904801
2.0899999141693,106.76375953049
2.0920000076294,105.30401045832
2.0940001010895,103.82514017696
2.0959999561310,102.32774247233
2.0980000495911,100.81297062952
2.0999999046326,99.281861173579
2.1019999980927,97.735724355920
2.1040000915527,96.176037139438
2.1059999465942,94.604383378380
2.1080000400543,93.022457029545
2.1099998950958,91.432006738563
2.1119999885559,89.834835320100
2.1140000820160,88.232855448351
2.1159999370575,86.627815607275
2.1180000305176,85.021682816281
2.1199998855591,83.416205438071
2.1219999790192,81.813187631846
2.1240000724792,80.214431684904
2.1259999275208,78.621522595486
2.1280000209808,77.036099246639
2.1300001144409,75.459527547704
2.1319999694824,73.893227402213
2.1340000629425,72.338514277176
2.1359999179840,70.796256485810
2.1380000114441,69.267441198223
2.1400001049042,67.752943083255
2.1419999599457,66.253197257487
2.1440000534058,64.768532226593
2.1459999084473,63.299333079747
2.1480000019073,61.845541145429
2.1500000953674,60.406937674626
2.1519999504089,58.983091020779
2.1540000438690,57.573610793095
2.1559998989105,56.177685671024
2.1579999923706,54.794382492182
2.1600000858307,53.422715295513
2.1619999408722,52.061484669242
2.1640000343323,50.709433698995
2.1659998893738,49.365089902743
2.1679999828339,48.027081115476
2.1700000762939,46.693995468567
2.1719999313354,45.364127782992
2.1740000247955,44.036175971162
2.1760001182556,42.708549553915
2.1779999732971,41.379886661990
2.1800000667572,40.048875748686
2.1819999217987,38.714309699862
2.1840000152588,37.375047420239
2.1860001087189,36.030156262632
2.1879999637604,34.678763030409
2.1900000572205,33.320319994490
2.1919999122620,31.954228070026
2.1940000057220,30.580212967229
2.1960000991821,29.198054592373
2.1979999542236,27.807755138067
2.2000000476837,26.409425522446
2.2019999027252,25.003334155663
2.2039999961853,23.590033025459
2.2060000896454,22.169846338271
2.2079999446869,20.743591948359
2.2100000381470,19.311929317467
2.2119998931885,17.875733375142
2.2139999866486,16.435819496667
2.2160000801086,14.993174327050
2.2179999351501,13.548725729678
2.2200000286102,12.103457346554
2.2219998836517,10.658463002638
2.2239999771118,9.2146149656717
2.2260000705719,7.7728444636674
2.2279999256134,6.3340244368945
