frequency,phase
1.0000000000000,60.862120316397
1.0019999742508,57.987181088541
1.0039999485016,55.131126915683
1.0060000419617,52.294505245402
1.0080000162125,49.477822252655
1.0099999904633,46.681602415365
1.0119999647141,43.906356660443
1.0140000581741,41.152588620422
1.0160000324249,38.420803127013
1.0180000066757,35.711480386809
1.0199999809265,33.025091911022
1.0219999551773,30.362095429191
1.0240000486374,27.722925727132
1.0260000228882,25.107988924486
1.0279999971390,22.517677486188
1.0299999713898,19.952335098152
1.0319999456406,17.412282459132
1.0340000391006,14.897798743681
1.0360000133514,12.409114906450
1.0379999876022,9.9464188585281
1.0399999618530,7.5098421334640
1.0420000553131,5.0994586385421
1.0440000295639,2.7152816106601
1.0460000038147,0.35725541860802
1.0479999780655,-1.9747456374665
1.0499999523163,-4.2809238444110
1.0520000457764,-6.5615590318119
1.0540000200272,-8.8170130707980
1.0559999942780,-11.047735190522
1.0579999685287,-13.254259194050
1.0599999427795,-15.437211106130
1.0620000362396,-17.597295702341
1.0640000104904,-19.735316999248
1.0659999847412,-21.852155295856
1.0679999589920,-23.948786922052
1.0700000524521,-26.026254189415
1.0720000267029,-28.085679775716
1.0740000009537,-30.128255637042
1.0759999752045,-32.155233567797
1.0779999494553,-34.167913649968
1.0800000429153,-36.167644666650
1.0820000171661,-38.155813769943
1.0839999914169,-40.133826638559
1.0859999656677,-42.103097715363
1.0880000591278,-44.065040015906
1.0900000333786,-46.021064121761
1.0920000076294,-47.972572054129
1.0939999818802,-49.920875655026
1.0959999561310,-51.867346792883
1.0980000495911,-53.813177478760
1.1000000238419,-55.759618603870
1.1019999980927,-57.707770583366
1.1039999723434,-59.658670120941
1.1059999465942,-61.613285652507
1.1080000400543,-63.572544693416
1.1100000143051,-65.537174818058
1.1119999885559,-67.507909875210
1.1139999628067,-69.485358984042
1.1160000562668,-71.469978143293
1.1180000305176,-73.462229994041
1.1200000047684,-75.462409649709
1.1219999790192,-77.470738206532
1.1239999532700,-79.487371107573
1.1260000467300,-81.512366236187
1.1280000209808,-83.545692818519
1.1299999952316,-85.587228764333
1.1319999694824,-87.636845974027
1.1339999437332,-89.694283224555
1.1360000371933,-91.759254401607
1.1380000114441,-93.831424441706
1.1399999856949,-95.910349170626
1.1419999599457,-97.995613832398
1.1440000534058,-100.08670932903
1.1460000276566,-102.18311307512
1.1480000019073,-104.28431312206
1.1499999761581,-106.38965545595
1.1519999504089,-108.49859992698
1.1540000438690,-110.61050781396
1.1560000181198,-112.72473757691
1.1579999923706,-114.84065685857
1.1599999666214,-116.95760272717
1.1619999408722,-119.07493606926
1.1640000343323,-121.19199490539
1.1660000085831,-123.30814969594
1.1679999828339,-125.42274893861
1.1699999570847,-127.53516397258
1.1720000505447,-129.64477668242
1.1740000247955,-131.75098976509
1.1759999990463,-133.85323773433
1.1779999732971,-135.95092814355
1.1799999475479,-138.04354593088
1.1820000410080,-140.13056720968
1.1840000152588,-142.21151658758
1.1859999895096,-144.28592840661
1.1879999637604,-146.35338685441
1.1900000572205,-148.41349316148
1.1920000314713,-150.46589865608
1.1940000057220,-152.51027042371
1.1959999799728,-154.54633516261
1.1979999542236,-156.57386376173
1.2000000476837,-158.59263372477
1.2020000219345,-160.60247337851
1.2039999961853,-162.60328230090
1.2059999704361,-164.59496429331
1.2079999446869,-166.57749596354
1.2100000381470,-168.55087340995
1.2120000123978,-170.51512640211
1.2139999866486,-172.47033713170
1.2159999608994,-174.41662540688
1.2180000543594,-176.35415946381
1.2200000286102,-178.28310046391
1.2220000028610,179.79630510190
1.2239999771118,177.88383824027
1.2259999513626,175.97919902955
1.2280000448227,174.08210050632
1.2300000190735,172.19220105453
1.2319999933243,170.30918622626
1.2339999675751,168.43271467125
1.2359999418259,166.56243148645
1.2380000352859,164.69796701464
1.2400000095367,162.83899463683
1.2419999837875,160.98512894788
1.2439999580383,159.13603437936
1.2460000514984,157.29142022587
1.2480000257492,155.45094214229
1.2500000000000,153.61433310809
1.2519999742508,151.78132653980
1.2539999485016,149.95171185323
1.2560000419617,148.12529188044
1.2580000162125,146.30189029548
1.2599999904633,144.48142742853
1.2619999647141,142.66381739743
1.2640000581741,140.84903552050
1.2660000324249,139.03708388995
1.2680000066757,137.22806584345
1.2699999809265,135.42207011508
1.2719999551773,133.61929484550
1.2740000486374,131.81996097956
1.2760000228882,130.02433423324
1.2779999971390,128.23272196231
1.2799999713898,126.44556022021
1.2819999456406,124.66321091557
1.2840000391006,122.88618283307
1.2860000133514,121.11500834083
1.2879999876022,119.35022494050
1.2899999618530,117.59246013701
1.2920000553131,115.84237515911
1.2940000295639,114.10062114388
1.2960000038147,112.36793881973
1.2979999780655,110.64512080651
1.2999999523163,108.93287405697
1.3020000457764,107.23204732538
1.3040000200272,105.54346093424
1.3059999942780,103.86793394316
1.3079999685287,102.20623020427
1.3099999427795,100.55933479578
1.3120000362396,98.927957273608
1.3140000104904,97.312946655858
1.3159999847412,95.715145865041
1.3179999589920,94.135268720945
1.3200000524521,92.574106299057
1.3220000267029,91.032259500325
1.3240000009537,89.510466041736
1.3259999752045,88.009245132982
1.3279999494553,86.529088407330
1.3300000429153,85.070460597441
1.3320000171661,83.633689090869
1.3339999914169,82.219020507879
1.3359999656677,80.826535972068
1.3380000591278,79.456263139714
1.3400000333786,78.108120862598
1.3420000076294,76.781834726113
1.3439999818802,75.477077728253
1.3459999561310,74.193274949259
1.3480000495911,72.929854006598
1.3500000238419,71.685995665166
1.3519999980927,70.460794806597
1.3539999723434,69.253163454566
1.3559999465942,68.062005089876
1.3580000400543,66.886036203028
1.3600000143051,65.723813006884
1.3619999885559,64.573964977726
1.3639999628067,63.434934541175
1.3660000562668,62.305113254515
1.3680000305176,61.182966319675
1.3700000047684,60.066832564178
1.3719999790192,58.955151946382
1.3739999532700,57.846309653698
1.3760000467300,56.738892186377
1.3780000209808,55.631415165592
1.3799999952316,54.522546542050
1.3819999694824,53.411143563412
1.3839999437332,52.296070582317
1.3860000371933,51.176408791092
1.3880000114441,50.051423218915
1.3899999856949,48.920485923568
1.3919999599457,47.783143096501
1.3940000534058,46.639171037317
1.3960000276566,45.488473459033
1.3980000019073,44.331140885638
1.3999999761581,43.167523290587
1.4019999504089,41.998058002789
1.4040000438690,40.823349261803
1.4060000181198,39.644240534771
1.4079999923706,38.461657641872
1.4099999666214,37.276730462010
1.4119999408722,36.090708219383
1.4140000343323,34.904960592084
1.4160000085831,33.720987924495
1.4179999828339,32.540378874240
1.4199999570847,31.364848921039
1.4220000505447,30.196174176111
1.4240000247955,29.036218784969
1.4259999990463,27.886888712917
1.4279999732971,26.750126202301
1.4299999475479,25.627897025960
1.4320000410080,24.522226878159
1.4340000152588,23.434996261261
1.4359999895096,22.368258884198
1.4379999637604,21.323813172818
1.4400000572205,20.303493114800
1.4420000314713,19.309015720993
1.4440000057220,18.341942329275
1.4459999799728,17.403721811040
1.4479999542236,16.495524713802
1.4500000476837,15.618393824154
1.4520000219345,14.773060733964
1.4539999961853,13.960049496166
1.4559999704361,13.179549802572
1.4579999446869,12.431316241165
1.4600000381470,11.714939500779
1.4620000123978,11.029461841889
1.4639999866486,10.373627710533
1.4659999608994,9.7457678855895
1.4680000543594,9.1438651704794
1.4700000286102,8.5654577680376
1.4720000028610,8.0078406272307
1.4739999771118,7.4679002222768
1.4759999513626,6.9423310796465
1.4780000448227,6.4275257885495
1.4800000190735,5.9198517567901
1.4819999933243,5.4155379545112
1.4839999675751,4.9107321109396
1.4859999418259,4.4017467547319
1.4880000352859,3.8849198426901
1.4900000095367,3.3569460985129
1.4919999837875,2.8145742931730
1.4939999580383,2.2550178324921
1.4960000514984,1.6757359753119
1.4980000257492,1.0746520330434
1.5000000000000,0.45007216329113
1.5019999742508,-0.19931494163095
1.5039999485016,-0.87435619138191
1.5060000419617,-1.5754888146782
1.5080000162125,-2.3027673663681
1.5099999904633,-3.0558094351557
1.5119999647141,-3.8339318401060
1.5140000581741,-4.6360149694322
1.5160000324249,-5.4606918101336
1.5180000066757,-6.3063507874978
1.5199999809265,-7.1710529422215
1.5219999551773,-8.0526385892319
1.5240000486374,-8.9487878186608
1.5260000228882,-9.8569835960535
1.5279999971390,-10.774632844029
1.5299999713898,-11.698921755196
1.5319999456406,-12.627008447742
1.5340000391006,-13.556077533250
1.5360000133514,-14.483151506557
1.5379999876022,-15.405284516415
1.5399999618530,-16.319516922158
1.5420000553131,-17.223043472235
1.5440000295639,-18.113041881073
1.5460000038147,-18.986788413065
1.5479999780655,-19.841764009359
1.5499999523163,-20.675510059275
1.5520000457764,-21.485871808474
1.5540000200272,-22.270880338736
1.5559999942780,-23.028867949191
1.5579999685287,-23.758441773716
1.5599999427795,-24.458699361394
1.5620000362396,-25.128960582313
1.5640000104904,-25.769057601738
1.5659999847412,-26.379293135948
1.5679999589920,-26.960432979981
1.5700000524521,-27.513786073396
1.5720000267029,-28.041078723600
1.5740000009537,-28.544654775148
1.5759999752045,-29.027220205829
1.5779999494553,-29.492085093396
1.5800000429153,-29.942877194638
1.5820000171661,-30.383530065529
1.5839999914169,-30.818423106177
1.5859999656677,-31.251898308382
1.5880000591278,-31.688620395681
1.5900000333786,-32.133153529544
1.5920000076294,-32.590013082988
1.5939999818802,-33.063563149724
1.5959999561310,-33.557848709405
1.5980000495911,-34.076700087577
1.6000000238419,-34.623439090682
1.6019999980927,-35.201029298698
1.6039999723434,-35.811895110035
1.6059999465942,-36.458030284863
1.6080000400543,-37.140886226816
1.6100000143051,-37.861468303722
1.6119999885559,-38.620249110016
1.6139999628067,-39.417167132263
1.6160000562668,-40.251871068989
1.6180000305176,-41.123510889134
1.6200000047684,-42.030892654804
1.6219999790192,-42.972501325954
1.6239999532700,-43.946511730287
1.6260000467300,-44.950848871878
1.6280000209808,-45.983273857602
1.6299999952316,-47.041188223129
1.6319999694824,-48.122026954159
1.6339999437332,-49.222997012320
1.6360000371933,-50.341154502917
1.6380000114441,-51.473571832354
1.6399999856949,-52.617110966134
1.6419999599457,-53.768842971045
1.6440000534058,-54.925522866930
1.6460000276566,-56.084030507053
1.6480000019073,-57.241255851042
1.6499999761581,-58.394112340334
1.6519999504089,-59.539479111788
1.6540000438690,-60.674383226236
1.6560000181198,-61.795846300538
1.6579999923706,-62.900997459641
1.6599999666214,-63.987187591887
1.6619999408722,-65.051877836267
1.6640000343323,-66.092633674921
1.6660000085831,-67.107164378087
1.6679999828339,-68.093690245320
1.6699999570847,-69.050407867499
1.6720000505447,-69.975951694537
1.6740000247955,-70.869261132520
1.6759999990463,-71.729864640566
1.6779999732971,-72.557246662881
1.6799999475479,-73.351815060489
1.6820000410080,-74.114119431494
1.6840000152588,-74.845522983811
1.6859999895096,-75.547530176853
1.6879999637604,-76.222353602293
1.6900000572205,-76.872751369295
1.6920000314713,-77.501756419900
1.6940000057220,-78.113031181993
1.6959999799728,-78.710454179296
1.6979999542236,-79.298342623723
1.7000000476837,-79.881094601234
1.7020000219345,-80.463381440109
1.7039999961853,-81.049930799277
1.7059999704361,-81.645386963248
1.7079999446869,-82.254257090674
1.7100000381470,-82.880858775500
1.7120000123978,-83.529180368820
1.7139999866486,-84.202937214188
1.7159999608994,-84.905327009473
1.7180000543594,-85.639107368551
1.7200000286102,-86.406492805429
1.7220000028610,-87.209449754107
1.7239999771118,-88.049098692974
1.7259999513626,-88.926286265762
1.7280000448227,-89.841340399242
1.7300000190735,-90.794069796371
1.7319999933243,-91.783900793448
1.7339999675751,-92.809904623178
1.7359999418259,-93.870687760167
1.7380000352859,-94.964692252808
1.7400000095367,-96.089980219892
1.7419999837875,-97.244363708724
1.7439999580383,-98.425466596265
1.7460000514984,-99.630750396141
1.7480000257492,-100.85745188908
1.7500000000000,-102.10273189329
1.7519999742508,-103.36363960002
1.7539999485016,-104.63705935511
1.7560000419617,-105.91998808238
1.7580000162125,-107.20914636863
1.7599999904633,-108.50141815597
1.7619999647141,-109.79352605093
1.7640000581741,-111.08224436544
1.7660000324249,-112.36440949931
1.7680000066757,-113.63684568089
1.7699999809265,-114.89649597920
1.7719999551773,-116.14024500873
1.7740000486374,-117.36530721147
1.7760000228882,-118.56884405754
1.7779999971390,-119.74827856449
1.7799999713898,-120.90116056428
1.7819999456406,-122.02535768036
1.7840000391006,-123.11906201514
1.7860000133514,-124.18063717420
1.7879999876022,-125.20898928588
1.7899999618530,-126.20335750289
1.7920000553131,-127.16356941796
1.7940000295639,-128.08979857102
1.7960000038147,-128.98291518062
1.7979999780655,-129.84439016611
1.7999999523163,-130.67625845335
1.8020000457764,-131.48112265646
1.8040000200272,-132.26233323168
1.8059999942780,-133.02381979074
1.8079999685287,-133.77005680519
1.8099999427795,-134.50596909498
1.8120000362396,-135.23696282829
1.8140000104904,-135.96872153678
1.8159999847412,-136.70720260692
1.8179999589920,-137.45841415229
1.8200000524521,-138.22836727472
1.8220000267029,-139.02302144504
1.8240000009537,-139.84783399193
1.8259999752045,-140.70827326257
1.8279999494553,-141.60903976663
1.8300000429153,-142.55455375146
1.8320000171661,-143.54864882427
1.8339999914169,-144.59448851196
1.8359999656677,-145.69474800816
1.8380000591278,-146.85145321330
1.8400000333786,-148.06607809929
1.8420000076294,-149.33966789582
1.8439999818802,-150.67259041949
1.8459999561310,-152.06490953962
1.8480000495911,-153.51618885748
1.8500000238419,-155.02560684202
1.8519999980927,-156.59228669104
1.8539999723434,-158.21475890646
1.8559999465942,-159.89154255550
1.8580000400543,-161.62089157996
1.8600000143051,-163.40100244023
1.8619999885559,-165.22979919036
1.8639999628067,-167.10536885141
1.8660000562668,-169.02552740480
1.8680000305176,-170.98808575869
1.8700000047684,-172.99097091058
1.8719999790192,-175.03204977383
1.8739999532700,-177.10902842589
1.8760000467300,-179.21977516831
1.8780000209808,178.63784050698
1.8799999952316,176.46584025994
1.8819999694824,174.26646458746
1.8839999437332,172.04173589649
1.8860000371933,169.79383737170
1.8880000114441,167.52468567045
1.8899999856949,165.23635468569
1.8919999599457,162.93080892397
1.8940000534058,160.61023892614
1.8960000276566,158.27650001822
1.8980000019073,155.93172365336
1.8999999761581,153.57787670615
1.9019999504089,151.21714304355
1.9040000438690,148.85171319547
1.9060000181198,146.48355016068
1.9079999923706,144.11506200580
1.9099999666214,141.74848016473
1.9119999408722,139.38627467828
1.9140000343323,137.03094977296
1.9160000085831,134.68519062267
1.9179999828339,132.35172564305
1.9199999570847,130.03372139608
1.9220000505447,127.73413532579
1.9240000247955,125.45667630529
1.9259999990463,123.20495579141
1.9279999732971,120.98311953346
1.9299999475479,118.79554626770
1.9320000410080,116.64709748538
1.9340000152588,114.54323773448
1.9359999895096,112.48986216080
1.9379999637604,110.49364335117
1.9400000572205,108.56201182481
1.9420000314713,106.70310813328
1.9440000057220,104.92627572582
1.9459999799728,103.24194963352
1.9479999542236,101.66166268418
1.9500000476837,100.19880067354
1.9520000219345,98.867951105049
1.9539999961853,97.685563789009
1.9559999704361,96.670105700195
1.9579999446869,95.841795838817
1.9600000381470,95.222652759778
1.9620000123978,94.836172726391
1.9639999866486,94.706836594335
1.9659999608994,94.858630498708
1.9680000543594,95.313740253583
1.9700000286102,96.089813072230
1.9720000028610,97.196686757110
1.9739999771118,98.632446361019
1.9759999513626,100.37933565564
1.9780000448227,102.40025218748
1.9800000190735,104.63743983825
1.9819999933243,107.01429098449
1.9839999675751,109.44081109675
1.9859999418259,111.82252468978
1.9880000352859,114.06993056578
1.9900000095367,116.10718590779
1.9919999837875,117.87756919409
1.9939999580383,119.34491315610
1.9960000514984,120.49233360338
1.9980000257492,121.31873064720
2.0000000000000,121.83454524853
2.0020000934601,122.05802837625
2.0039999485016,122.01180037467
2.0060000419617,121.72023732466
2.0079998970032,121.20813382106
2.0099999904633,120.49937865794
2.0120000839233,119.61648161070
2.0139999389648,118.58009500334
2.0160000324249,117.40907277809
2.0179998874664,116.12057170142
2.0199999809265,114.72983609989
2.0220000743866,113.25091058849
2.0239999294281,111.69619518575
2.0260000228882,110.07694753979
2.0280001163483,108.40344182466
2.0299999713898,106.68507633735
2.0320000648499,104.93031897430
2.0339999198914,103.14714707741
2.0360000133514,101.34293881466
2.0380001068115,99.524579470501
2.0399999618530,97.698677848309
2.0420000553131,95.871465682141
2.0439999103546,94.049007376012
2.0460000038147,92.237204234929
2.0480000972748,90.441793252508
2.0499999523163,88.668457635193
2.0520000457764,86.922988908999
2.0539999008179,85.210961273606
2.0559999942780,83.538220514404
2.0580000877380,81.910394890514
2.0599999427795,80.333605329794
2.0620000362396,78.813587087347
2.0639998912811,77.356516651423
2.0659999847412,75.968404069568
2.0680000782013,74.655313262138
2.0699999332428,73.423256463560
2.0720000267029,72.278244289600
2.0739998817444,71.225902917213
2.0759999752045,70.271369233728
2.0780000686646,69.419454294443
2.0799999237061,68.674089100874
2.0820000171661,68.038008055226
2.0840001106262,67.513010931984
2.0859999656677,67.098938656060
2.0880000591278,66.793983215359
2.0899999141693,66.594104006222
2.0920000076294,66.492854007198
2.0940001010895,66.481325980572
2.0959999561310,66.548207579798
2.0980000495911,66.679729374543
2.0999999046326,66.860099679626
2.1019999980927,67.071946829799
2.1040000915527,67.296959549231
2.1059999465942,67.516235384555
2.1080000400543,67.711689640028
2.1099998950958,67.865831626629
2.1119999885559,67.963148269422
2.1140000820160,67.989922989413
2.1159999370575,67.935007763274
2.1180000305176,67.789607436441
2.1199998855591,67.547544772402
2.1219999790192,67.204834830473
2.1240000724792,66.759778889005
2.1259999275208,66.212269996998
2.1280000209808,65.564003455940
2.1300001144409,64.817928032839
2.1319999694824,63.977869758046
2.1340000629425,63.048418137117
2.1359999179840,62.034654644254
2.1380000114441,60.942206261701
2.1400001049042,59.776701552928
2.1419999599457,58.543824140725
2.1440000534058,57.249367948874
2.1459999084473,55.899067074297
2.1480000019073,54.498332023650
2.1500000953674,53.052735447659
2.1519999504089,51.567361755135
2.1540000438690,50.047293222957
2.1559998989105,48.497328330609
2.1579999923706,46.922123460088
2.1600000858307,45.326042710286
2.1619999408722,43.713462438500
2.1640000343323,42.088315519311
2.1659998893738,40.454532843416
2.1679999828339,38.815945496926
2.1700000762939,37.176046021438
2.1719999313354,35.538165409912
2.1740000247955,33.905693409011
2.1760001182556,32.281695234003
2.1779999732971,30.669170608366
2.1800000667572,29.070904620825
2.1819999217987,27.489580095957
2.1840000152588,25.927705337403
2.1860001087189,24.387634009286
2.1879999637604,22.871440480058
2.1900000572205,21.381314460971
2.1919999122620,19.918833697165
2.1940000057220,18.485530940611
2.1960000991821,17.082883562752
2.1979999542236,15.711872617858
2.2000000476837,14.373156555419
2.2019999027252,13.067388396530
2.2039999961853,11.794624673502
2.2060000896454,10.554699087962
2.2079999446869,9.3470666865180
2.2100000381470,8.1709083579256
2.2119998931885,7.0249662508170
2.2139999866486,5.9076564084532
2.2160000801086,4.8169571097540
2.2179999351501,3.7506283754689
2.2200000286102,2.7059369555991
2.2219998836517,1.6802065545165
2.2239999771118,0.67004880784801
2.2260000705719,-0.32770516124054
2.2279999256134,-1.3166619646021
