frequency,phase
1.0000000000000,-57.644931416790
1.0019999742508,-60.549660395520
1.0039999485016,-63.426012470525
1.0060000419617,-66.273701233827
1.0080000162125,-69.092554562783
1.0099999904633,-71.882440248297
1.0119999647141,-74.643333933981
1.0140000581741,-77.375292807472
1.0160000324249,-80.078449163687
1.0180000066757,-82.753042035394
1.0199999809265,-85.399405910598
1.0219999551773,-88.017936129383
1.0240000486374,-90.609152946749
1.0260000228882,-93.173636284397
1.0279999971390,-95.712055850535
1.0299999713898,-98.225182585646
1.0319999456406,-100.71383029009
1.0340000391006,-103.17885266458
1.0360000133514,-105.62126655668
1.0379999876022,-108.04201470834
1.0399999618530,-110.44215735303
1.0420000553131,-112.82274650643
1.0440000295639,-115.18484279498
1.0460000038147,-117.52953704206
1.0479999780655,-119.85790774399
1.0499999523163,-122.17104686125
1.0520000457764,-124.46992661642
1.0540000200272,-126.75560599160
1.0559999942780,-129.02902125252
1.0579999685287,-131.29106955504
1.0599999427795,-133.54260091114
1.0620000362396,-135.78441964216
1.0640000104904,-138.01715432801
1.0659999847412,-140.24151635220
1.0679999589920,-142.45806275721
1.0700000524521,-144.66723200933
1.0720000267029,-146.86950324082
1.0740000009537,-149.06518988051
1.0759999752045,-151.25457981784
1.0779999494553,-153.43793131302
1.0800000429153,-155.61535446578
1.0820000171661,-157.78701318438
1.0839999914169,-159.95297486064
1.0859999656677,-162.11325693625
1.0880000591278,-164.26785339726
1.0900000333786,-166.41683497946
1.0920000076294,-168.56014972957
1.0939999818802,-170.69775200865
1.0959999561310,-172.82964553037
1.0980000495911,-174.95581495515
1.1000000238419,-177.07628801179
1.1019999980927,-179.19106479530
1.1039999723434,178.69977288518
1.1059999465942,176.59612950623
1.1080000400543,174.49792265240
1.1100000143051,172.40497520937
1.1119999885559,170.31708139783
1.1139999628067,168.23401024888
1.1160000562668,166.15548801204
1.1180000305176,164.08124066030
1.1200000047684,162.01086178606
1.1219999790192,159.94408821212
1.1239999532700,157.88042672894
1.1260000467300,155.81952648140
1.1280000209808,153.76099004440
1.1299999952316,151.70431057490
1.1319999694824,149.64914793269
1.1339999437332,147.59500809773
1.1360000371933,145.54149821210
1.1380000114441,143.48827450696
1.1399999856949,141.43494331307
1.1419999599457,139.38115905411
1.1440000534058,137.32666840945
1.1460000276566,135.27124658763
1.1480000019073,133.21460773864
1.1499999761581,131.15668411144
1.1519999504089,129.09728841523
1.1540000438690,127.03650729351
1.1560000181198,124.97428033612
1.1579999923706,122.91069211000
1.1599999666214,120.84587064668
1.1619999408722,118.78001201197
1.1640000343323,116.71336338715
1.1660000085831,114.64616199740
1.1679999828339,112.57877266147
1.1699999570847,110.51157702050
1.1720000505447,108.44497909803
1.1740000247955,106.37939463936
1.1759999990463,104.31528419140
1.1779999732971,102.25311253914
1.1799999475479,100.19342833380
1.1820000410080,98.136666790165
1.1840000152588,96.083348376953
1.1859999895096,94.033963548909
1.1879999637604,91.988950331871
1.1900000572205,89.948800216902
1.1920000314713,87.913923019479
1.1940000057220,85.884673549503
1.1959999799728,83.861462533728
1.1979999542236,81.844534697083
1.2000000476837,79.834190602272
1.2020000219345,77.830650201176
1.2039999961853,75.834077713339
1.2059999704361,73.844551838858
1.2079999446869,71.862129862396
1.2100000381470,69.886813477745
1.2120000123978,67.918518186820
1.2139999866486,65.957160871857
1.2159999608994,64.002577367309
1.2180000543594,62.054499750257
1.2200000286102,60.112759070722
1.2220000028610,58.177029551397
1.2239999771118,56.246980782685
1.2259999513626,54.322257844954
1.2280000448227,52.402538974922
1.2300000190735,50.487410297937
1.2319999933243,48.576540297788
1.2339999675751,46.669525799631
1.2359999418259,44.766031772528
1.2380000352859,42.865766860882
1.2400000095367,40.968366861678
1.2419999837875,39.073590740074
1.2439999580383,37.181220038511
1.2460000514984,35.291112115142
1.2480000257492,33.403111504328
1.2500000000000,31.517158222149
1.2519999742508,29.633227418804
1.2539999485016,27.751403437618
1.2560000419617,25.871792108908
1.2580000162125,23.994580874268
1.2599999904633,22.119967895824
1.2619999647141,20.248303228445
1.2640000581741,18.379837604982
1.2660000324249,16.515005696232
1.2680000066757,14.654297300824
1.2699999809265,12.798098223316
1.2719999551773,10.946952063874
1.2740000486374,9.1014090130490
1.2760000228882,7.2619560071898
1.2779999971390,5.4291710850422
1.2799999713898,3.6035706013324
1.2819999456406,1.7857291776458
1.2840000391006,-0.023861037273684
1.2860000133514,-1.8247086883310
1.2879999876022,-3.6163220176774
1.2899999618530,-5.3983456650090
1.2920000553131,-7.1703701002523
1.2940000295639,-8.9321215313416
1.2960000038147,-10.683381355979
1.2979999780655,-12.423905942916
1.2999999523163,-14.153692482951
1.3020000457764,-15.872605749761
1.3040000200272,-17.580807268170
1.3059999942780,-19.278354735704
1.3079999685287,-20.965412060680
1.3099999427795,-22.642332688614
1.3120000362396,-24.309417736494
1.3140000104904,-25.967077525021
1.3159999847412,-27.615694366196
1.3179999589920,-29.255759384156
1.3200000524521,-30.887874791087
1.3220000267029,-32.512476638149
1.3240000009537,-34.130136848006
1.3259999752045,-35.741378411074
1.3279999494553,-37.346747834233
1.3300000429153,-38.946649861865
1.3320000171661,-40.541556449993
1.3339999914169,-42.131840313212
1.3359999656677,-43.717811386235
1.3380000591278,-45.299653564810
1.3400000333786,-46.877512077162
1.3420000076294,-48.451405535258
1.3439999818802,-50.021336090330
1.3459999561310,-51.587063630830
1.3480000495911,-53.148310439932
1.3500000238419,-54.704716860731
1.3519999980927,-56.255741353487
1.3539999723434,-57.800784561438
1.3559999465942,-59.339191015038
1.3580000400543,-60.870162231233
1.3600000143051,-62.392832659991
1.3619999885559,-63.906210107491
1.3639999628067,-65.409398241551
1.3660000562668,-66.901330099123
1.3680000305176,-68.380914105512
1.3700000047684,-69.847136806156
1.3719999790192,-71.298907694601
1.3739999532700,-72.735268071623
1.3760000467300,-74.155183311225
1.3780000209808,-75.557775143105
1.3799999952316,-76.942199948768
1.3819999694824,-78.307773752152
1.3839999437332,-79.653921794562
1.3860000371933,-80.980181681156
1.3880000114441,-82.286304191066
1.3899999856949,-83.572210622900
1.3919999599457,-84.837898967827
1.3940000534058,-86.083697879989
1.3960000276566,-87.310072410067
1.3980000019073,-88.517677121446
1.3999999761581,-89.707359392357
1.4019999504089,-90.880157562222
1.4040000438690,-92.037218983823
1.4060000181198,-93.179936902128
1.4079999923706,-94.309677374870
1.4099999666214,-95.428080039323
1.4119999408722,-96.536646951042
1.4140000343323,-97.637045023337
1.4160000085831,-98.730913875074
1.4179999828339,-99.819700112426
1.4199999570847,-100.90499069816
1.4220000505447,-101.98809359285
1.4240000247955,-103.07026953822
1.4259999990463,-104.15244497450
1.4279999732971,-105.23560194581
1.4299999475479,-106.32029053466
1.4320000410080,-107.40700129485
1.4340000152588,-108.49578932392
1.4359999895096,-109.58676207126
1.4379999637604,-110.67948301355
1.4400000572205,-111.77351452281
1.4420000314713,-112.86814940468
1.4440000057220,-113.96250906694
1.4459999799728,-115.05555840804
1.4479999542236,-116.14609365596
1.4500000476837,-117.23285865968
1.4520000219345,-118.31448744331
1.4539999961853,-119.38961394156
1.4559999704361,-120.45681787766
1.4579999446869,-121.51478178765
1.4600000381470,-122.56220545301
1.4620000123978,-123.59799350358
1.4639999866486,-124.62109965036
1.4659999608994,-125.63082298313
1.4680000543594,-126.62650059909
1.4700000286102,-127.60780481067
1.4720000028610,-128.57468481765
1.4739999771118,-129.52741533816
1.4759999513626,-130.46653953675
1.4780000448227,-131.39293271084
1.4800000190735,-132.30774179192
1.4819999933243,-133.21249650554
1.4839999675751,-134.10888926084
1.4859999418259,-134.99894332817
1.4880000352859,-135.88484860710
1.4900000095367,-136.76894657018
1.4919999837875,-137.65364899429
1.4939999580383,-138.54151588250
1.4960000514984,-139.43501391919
1.4980000257492,-140.33660071890
1.5000000000000,-141.24846035825
1.5019999742508,-142.17261001481
1.5039999485016,-143.11118600142
1.5060000419617,-144.06555438012
1.5080000162125,-145.03708393341
1.5099999904633,-146.02664057355
1.5119999647141,-147.03483286207
1.5140000581741,-148.06187397490
1.5160000324249,-149.10765610527
1.5180000066757,-150.17163555356
1.5199999809265,-151.25310091735
1.5219999551773,-152.35068356045
1.5240000486374,-153.46318595467
1.5260000228882,-154.58885514297
1.5279999971390,-155.72572669745
1.5299999713898,-156.87172461534
1.5319999456406,-158.02455169860
1.5340000391006,-159.18185704049
1.5360000133514,-160.34129735882
1.5379999876022,-161.50029649282
1.5399999618530,-162.65640374493
1.5420000553131,-163.80731725296
1.5440000295639,-164.95058052857
1.5460000038147,-166.08406502218
1.5479999780655,-167.20580097388
1.5499999523163,-168.31409314517
1.5520000457764,-169.40730673579
1.5540000200272,-170.48429064014
1.5559999942780,-171.54411824683
1.5579999685287,-172.58624114755
1.5599999427795,-173.61060524853
1.5620000362396,-174.61726564084
1.5640000104904,-175.60682345205
1.5659999847412,-176.58037126263
1.5679999589920,-177.53916611071
1.5700000524521,-178.48495616011
1.5720000267029,-179.41965383176
1.5740000009537,179.65433639763
1.5759999752045,178.73471977366
1.5779999494553,177.81892790498
1.5800000429153,176.90422889269
1.5820000171661,175.98800022991
1.5839999914169,175.06767315899
1.5859999656677,174.14095318821
1.5880000591278,173.20549030672
1.5900000333786,172.25953630326
1.5920000076294,171.30145280055
1.5939999818802,170.33008998943
1.5959999561310,169.34473837816
1.5980000495911,168.34490938153
1.6000000238419,167.33087206517
1.6019999980927,166.30311926224
1.6039999723434,165.26269048985
1.6059999465942,164.21095166104
1.6080000400543,163.14975734918
1.6100000143051,162.08140663975
1.6119999885559,161.00830355282
1.6139999628067,159.93328677316
1.6160000562668,158.85941544581
1.6180000305176,157.79008177387
1.6200000047684,156.72872406809
1.6219999790192,155.67873224976
1.6239999532700,154.64376733619
1.6260000467300,153.62732756503
1.6280000209808,152.63296285083
1.6299999952316,151.66378225008
1.6319999694824,150.72296456708
1.6339999437332,149.81329427378
1.6360000371933,148.93700854356
1.6380000114441,148.09607474204
1.6399999856949,147.29175077791
1.6419999599457,146.52480252241
1.6440000534058,145.79523085335
1.6460000276566,145.10237786758
1.6480000019073,144.44476568750
1.6499999761581,143.82015991753
1.6519999504089,143.22549415218
1.6540000438690,142.65717012493
1.6560000181198,142.11086299307
1.6579999923706,141.58154882211
1.6599999666214,141.06409716857
1.6619999408722,140.55276129659
1.6640000343323,140.04180824588
1.6660000085831,139.52577531403
1.6679999828339,138.99908300193
1.6699999570847,138.45676587089
1.6720000505447,137.89428737964
1.6740000247955,137.30781995481
1.6759999990463,136.69408458236
1.6779999732971,136.05090243209
1.6799999475479,135.37651469343
1.6820000410080,134.67043475017
1.6840000152588,133.93255913367
1.6859999895096,133.16380828379
1.6879999637604,132.36582062673
1.6900000572205,131.54073367072
1.6920000314713,130.69122383028
1.6940000057220,129.82067336078
1.6959999799728,128.93264432579
1.6979999542236,128.03094566611
1.7000000476837,127.11979868920
1.7020000219345,126.20346276497
1.7039999961853,125.28603065812
1.7059999704361,124.37176804593
1.7079999446869,123.46466466000
1.7100000381470,122.56848980931
1.7120000123978,121.68657736350
1.7139999866486,120.82192655414
1.7159999608994,119.97694995606
1.7180000543594,119.15339517934
1.7200000286102,118.35246009671
1.7220000028610,117.57458259301
1.7239999771118,116.81922008285
1.7259999513626,116.08521927623
1.7280000448227,115.37034217301
1.7300000190735,114.67186338998
1.7319999933243,113.98594533656
1.7339999675751,113.30833780276
1.7359999418259,112.63411439387
1.7380000352859,111.95770759177
1.7400000095367,111.27354114018
1.7419999837875,110.57582498574
1.7439999580383,109.85865442978
1.7460000514984,109.11651464451
1.7480000257492,108.34426661335
1.7500000000000,107.53699100018
1.7519999742508,106.69086701900
1.7539999485016,105.80245266704
1.7560000419617,104.86900993356
1.7580000162125,103.88906934333
1.7599999904633,102.86131689297
1.7619999647141,101.78575400365
1.7640000581741,100.66298128649
1.7660000324249,99.494035224928
1.7680000066757,98.280993144646
1.7699999809265,97.026259590445
1.7719999551773,95.732731156210
1.7740000486374,94.403794840770
1.7760000228882,93.043221127184
1.7779999971390,91.654834924440
1.7799999713898,90.243007439640
1.7819999456406,88.811946151154
1.7840000391006,87.366240971413
1.7860000133514,85.910099545482
1.7879999876022,84.448165418624
1.7899999618530,82.984756762794
1.7920000553131,81.523915481014
1.7940000295639,80.069850799546
1.7960000038147,78.626057783535
1.7979999780655,77.195980113755
1.7999999523163,75.782731886748
1.8020000457764,74.388663148165
1.8040000200272,73.016013112787
1.8059999942780,71.665986381328
1.8079999685287,70.339399405470
1.8099999427795,69.036363453227
1.8120000362396,67.756222833317
1.8140000104904,66.497554303630
1.8159999847412,65.258010882635
1.8179999589920,64.034697135104
1.8200000524521,62.823730349644
1.8220000267029,61.620852079414
1.8240000009537,60.421035147081
1.8259999752045,59.218702937566
1.8279999494553,58.008012513062
1.8300000429153,56.782839691584
1.8320000171661,55.537177926868
1.8339999914169,54.264848592513
1.8359999656677,52.960066265699
1.8380000591278,51.617412441977
1.8400000333786,50.231868217672
1.8420000076294,48.799112273344
1.8439999818802,47.315432166600
1.8459999561310,45.777710565174
1.8480000495911,44.183709329041
1.8500000238419,42.531949918858
1.8519999980927,40.821342776700
1.8539999723434,39.051884553957
1.8559999465942,37.223963915534
1.8580000400543,35.338612071861
1.8600000143051,33.397418560300
1.8619999885559,31.402404648812
1.8639999628067,29.356023160396
1.8660000562668,27.261122175233
1.8680000305176,25.120868882725
1.8700000047684,22.938760875412
1.8719999790192,20.718510936656
1.8739999532700,18.464111275983
1.8760000467300,16.179824606806
1.8780000209808,13.870017855580
1.8799999952316,11.539338752326
1.8819999694824,9.1926496725763
1.8839999437332,6.8350867966268
1.8860000371933,4.4721142970769
1.8880000114441,2.1092515060246
1.8899999856949,-0.24743680167742
1.8919999599457,-2.5916124282526
1.8940000534058,-4.9164993441044
1.8960000276566,-7.2147756611841
1.8980000019073,-9.4786826960651
1.8999999761581,-11.699751228425
1.9019999504089,-13.868746688861
1.9040000438690,-15.975669429360
1.9060000181198,-18.009480975678
1.9079999923706,-19.958162931949
1.9099999666214,-21.808542078111
1.9119999408722,-23.546031885861
1.9140000343323,-25.154732989886
1.9160000085831,-26.617374496923
1.9179999828339,-27.915057628010
1.9199999570847,-29.027830333365
1.9220000505447,-29.934552372584
1.9240000247955,-30.613965489427
1.9259999990463,-31.044924511249
1.9279999732971,-31.208356709513
1.9299999475479,-31.089020845244
1.9320000410080,-30.677784883825
1.9340000152588,-29.974551867075
1.9359999895096,-28.991386024355
1.9379999637604,-27.754957108806
1.9400000572205,-26.307611821451
1.9420000314713,-24.707000978328
1.9440000057220,-23.022129657873
1.9459999799728,-21.328243090062
1.9479999542236,-19.699378125388
1.9500000476837,-18.201874102197
1.9520000219345,-16.889275654780
1.9539999961853,-15.799121711573
1.9559999704361,-14.953107992683
1.9579999446869,-14.358334490985
1.9600000381470,-14.010214335878
1.9620000123978,-13.895138735060
1.9639999866486,-13.993712302153
1.9659999608994,-14.282601720738
1.9680000543594,-14.736398880588
1.9700000286102,-15.329040982191
1.9720000028610,-16.034244508641
1.9739999771118,-16.826109806722
1.9759999513626,-17.679391258092
1.9780000448227,-18.569446431686
1.9800000190735,-19.472286698327
1.9819999933243,-20.364310461135
1.9839999675751,-21.222565967735
1.9859999418259,-22.024483683813
1.9880000352859,-22.747773858824
1.9900000095367,-23.370905306934
1.9919999837875,-23.873170760005
1.9939999580383,-24.235280158886
1.9960000514984,-24.439911921711
1.9980000257492,-24.472969867645
2.0000000000000,-24.324562996023
2.0020000934601,-23.990648867193
2.0039999485016,-23.474343210033
2.0060000419617,-22.787442465796
2.0079998970032,-21.951373106120
2.0099999904633,-20.996951071316
2.0120000839233,-19.964006386822
2.0139999389648,-18.898660784058
2.0160000324249,-17.850910819568
2.0179998874664,-16.870259023054
2.0199999809265,-16.002496814183
2.0220000743866,-15.286801906698
2.0239999294281,-14.753666790865
2.0260000228882,-14.424230633696
2.0280001163483,-14.310740938081
2.0299999713898,-14.417183187274
2.0320000648499,-14.741151854461
2.0339999198914,-15.275328711720
2.0360000133514,-16.008781517774
2.0380001068115,-16.928343781422
2.0399999618530,-18.019534791588
2.0420000553131,-19.267545635840
2.0439999103546,-20.657517002212
2.0460000038147,-22.174965673430
2.0480000972748,-23.806289099120
2.0499999523163,-25.538368795694
2.0520000457764,-27.359189471812
2.0539999008179,-29.257436884920
2.0559999942780,-31.222728530203
2.0580000877380,-33.245335415050
2.0599999427795,-35.316471550434
2.0620000362396,-37.427708468436
2.0639998912811,-39.571622636867
2.0659999847412,-41.741108254986
2.0680000782013,-43.929556219033
2.0699999332428,-46.130954254786
2.0720000267029,-48.339783353411
2.0739998817444,-50.550634894237
2.0759999752045,-52.758806351073
2.0780000686646,-54.959711356958
2.0799999237061,-57.149088901125
2.0820000171661,-59.323219367352
2.0840001106262,-61.478444946829
2.0859999656677,-63.611649254144
2.0880000591278,-65.719773308562
2.0899999141693,-67.800247330384
2.0920000076294,-69.850890145280
2.0940001010895,-71.869675601366
2.0959999561310,-73.855073917762
2.0980000495911,-75.805886161196
2.0999999046326,-77.721290781142
2.1019999980927,-79.600956947997
2.1040000915527,-81.444671226772
2.1059999465942,-83.252976986107
2.1080000400543,-85.026749751713
2.1099998950958,-86.767027636301
2.1119999885559,-88.475503783807
2.1140000820160,-90.154309687286
2.1159999370575,-91.805521589722
2.1180000305176,-93.431980968808
2.1199998855591,-95.036474670058
2.1219999790192,-96.622061158104
2.1240000724792,-98.192076989798
2.1259999275208,-99.749687033903
2.1280000209808,-101.29828209395
2.1300001144409,-102.84097611037
2.1319999694824,-104.38115683541
2.1340000629425,-105.92144491980
2.1359999179840,-107.46463213249
2.1380000114441,-109.01322612411
2.1400001049042,-110.56941662350
2.1419999599457,-112.13456815866
2.1440000534058,-113.71026628995
2.1459999084473,-115.29754751521
2.1480000019073,-116.89690544180
2.1500000953674,-118.50872050629
2.1519999504089,-120.13272309815
2.1540000438690,-121.76863484386
2.1559998989105,-123.41558016371
2.1579999923706,-125.07258501961
2.1600000858307,-126.73833391232
2.1619999408722,-128.41145733664
2.1640000343323,-130.09004570320
2.1659998893738,-131.77251047320
2.1679999828339,-133.45683367506
2.1700000762939,-135.14105102276
2.1719999313354,-136.82302338580
2.1740000247955,-138.50100984956
2.1760001182556,-140.17265941162
2.1779999732971,-141.83622047989
2.1800000667572,-143.48978081996
2.1819999217987,-145.13164912221
2.1840000152588,-146.76029465114
2.1860001087189,-148.37418660673
2.1879999637604,-149.97234129785
2.1900000572205,-151.55366667524
2.1919999122620,-153.11750462206
2.1940000057220,-154.66326292536
2.1960000991821,-156.19109330904
2.1979999542236,-157.70083856807
2.2000000476837,-159.19304244679
2.2019999027252,-160.66836419981
2.2039999961853,-162.12783695889
2.2060000896454,-163.57283295851
2.2079999446869,-165.00444039979
2.2100000381470,-166.42473710927
2.2119998931885,-167.83536207690
2.2139999866486,-169.23844650803
2.2160000801086,-170.63617738098
2.2179999351501,-172.03046486501
2.2200000286102,-173.42376833384
2.2219998836517,-174.81794688069
2.2239999771118,-176.21523947694
