frequency,refcoef
1.0000000000000,-11.487817217379
1.0019999742508,-11.406777665182
1.0039999485016,-11.328543196934
1.0060000419617,-11.253095769622
1.0080000162125,-11.180417822386
1.0099999904633,-11.110484985060
1.0119999647141,-11.043274780594
1.0140000581741,-10.978760403712
1.0160000324249,-10.916912128885
1.0180000066757,-10.857699766472
1.0199999809265,-10.801089304359
1.0219999551773,-10.747043923009
1.0240000486374,-10.695527223261
1.0260000228882,-10.646496037433
1.0279999971390,-10.599909002413
1.0299999713898,-10.555721118206
1.0319999456406,-10.513883855360
1.0340000391006,-10.474347610579
1.0360000133514,-10.437061099504
1.0379999876022,-10.401969567259
1.0399999618530,-10.369018881411
1.0420000553131,-10.338149704602
1.0440000295639,-10.309302590384
1.0460000038147,-10.282417670381
1.0479999780655,-10.257432037791
1.0499999523163,-10.234281095138
1.0520000457764,-10.212901007691
1.0540000200272,-10.193224133937
1.0559999942780,-10.175184420315
1.0579999685287,-10.158714517971
1.0599999427795,-10.143745364388
1.0620000362396,-10.130209453346
1.0640000104904,-10.118038068598
1.0659999847412,-10.107163372874
1.0679999589920,-10.097518080587
1.0700000524521,-10.089034578858
1.0720000267029,-10.081647574491
1.0740000009537,-10.075292341031
1.0759999752045,-10.069906293414
1.0779999494553,-10.065427827668
1.0800000429153,-10.061798271210
1.0820000171661,-10.058959443225
1.0839999914169,-10.056857328622
1.0859999656677,-10.055441265801
1.0880000591278,-10.054661584397
1.0900000333786,-10.054472951918
1.0920000076294,-10.054833800676
1.0939999818802,-10.055704111431
1.0959999561310,-10.057050874385
1.0980000495911,-10.058841224965
1.1000000238419,-10.061049884489
1.1019999980927,-10.063651466754
1.1039999723434,-10.066628241401
1.1059999465942,-10.069964266265
1.1080000400543,-10.073647312920
1.1100000143051,-10.077671545551
1.1119999885559,-10.082033439940
1.1139999628067,-10.086731695157
1.1160000562668,-10.091771819791
1.1180000305176,-10.097159885976
1.1200000047684,-10.102906355275
1.1219999790192,-10.109026550227
1.1239999532700,-10.115535248597
1.1260000467300,-10.122452033437
1.1280000209808,-10.129797735616
1.1299999952316,-10.137596818316
1.1319999694824,-10.145873069178
1.1339999437332,-10.154655113665
1.1360000371933,-10.163969105242
1.1380000114441,-10.173845842913
1.1399999856949,-10.184312929222
1.1419999599457,-10.195402273354
1.1440000534058,-10.207141929951
1.1460000276566,-10.219563001455
1.1480000019073,-10.232692670521
1.1499999761581,-10.246562594865
1.1519999504089,-10.261198673084
1.1540000438690,-10.276626775148
1.1560000181198,-10.292873527871
1.1579999923706,-10.309961665504
1.1599999666214,-10.327912685852
1.1619999408722,-10.346747088545
1.1640000343323,-10.366482194964
1.1660000085831,-10.387134423002
1.1679999828339,-10.408716137779
1.1699999570847,-10.431240129429
1.1720000505447,-10.454714708816
1.1740000247955,-10.479145904175
1.1759999990463,-10.504538483161
1.1779999732971,-10.530894356345
1.1799999475479,-10.558212565376
1.1820000410080,-10.586489484538
1.1840000152588,-10.615721841839
1.1859999895096,-10.645900498629
1.1879999637604,-10.677018488204
1.1900000572205,-10.709061814067
1.1920000314713,-10.742020287996
1.1940000057220,-10.775878622497
1.1959999799728,-10.810619342165
1.1979999542236,-10.846226404811
1.2000000476837,-10.882682335943
1.2020000219345,-10.919966791079
1.2039999961853,-10.958060438407
1.2059999704361,-10.996940610992
1.2079999446869,-11.036588962026
1.2100000381470,-11.076984899610
1.2120000123978,-11.118108004868
1.2139999866486,-11.159935947849
1.2159999608994,-11.202451706459
1.2180000543594,-11.245633630688
1.2200000286102,-11.289466945824
1.2220000028610,-11.333933764215
1.2239999771118,-11.379018886902
1.2259999513626,-11.424708485712
1.2280000448227,-11.470992560943
1.2300000190735,-11.517857535793
1.2319999933243,-11.565297961844
1.2339999675751,-11.613307993171
1.2359999418259,-11.661883314286
1.2380000352859,-11.711020425328
1.2400000095367,-11.760722416731
1.2419999837875,-11.810989251455
1.2439999580383,-11.861827899023
1.2460000514984,-11.913242690571
1.2480000257492,-11.965245949501
1.2500000000000,-12.017847102539
1.2519999742508,-12.071056958258
1.2539999485016,-12.124892923090
1.2560000419617,-12.179368463910
1.2580000162125,-12.234502738574
1.2599999904633,-12.290312614127
1.2619999647141,-12.346818196668
1.2640000581741,-12.404039848926
1.2660000324249,-12.461996640381
1.2680000066757,-12.520711545924
1.2699999809265,-12.580203251660
1.2719999551773,-12.640492365335
1.2740000486374,-12.701598542785
1.2760000228882,-12.763541777210
1.2779999971390,-12.826338589934
1.2799999713898,-12.890004662154
1.2819999456406,-12.954555594468
1.2840000391006,-13.020003550124
1.2860000133514,-13.086359058310
1.2879999876022,-13.153629208794
1.2899999618530,-13.221820910482
1.2920000553131,-13.290936054769
1.2940000295639,-13.360972524580
1.2960000038147,-13.431928382613
1.2979999780655,-13.503795208622
1.2999999523163,-13.576563398766
1.3020000457764,-13.650217739182
1.3040000200272,-13.724740407201
1.3059999942780,-13.800109435931
1.3079999685287,-13.876299779614
1.3099999427795,-13.953281705109
1.3120000362396,-14.031024218917
1.3140000104904,-14.109487593376
1.3159999847412,-14.188635043620
1.3179999589920,-14.268421456946
1.3200000524521,-14.348799908580
1.3220000267029,-14.429721659520
1.3240000009537,-14.511135064139
1.3259999752045,-14.592984862781
1.3279999494553,-14.675213822680
1.3300000429153,-14.757765614338
1.3320000171661,-14.840578531109
1.3339999914169,-14.923592955444
1.3359999656677,-15.006746761694
1.3380000591278,-15.089980026248
1.3400000333786,-15.173231458854
1.3420000076294,-15.256440359201
1.3439999818802,-15.339549729238
1.3459999561310,-15.422501372093
1.3480000495911,-15.505241840250
1.3500000238419,-15.587720585661
1.3519999980927,-15.669888086534
1.3539999723434,-15.751700667817
1.3559999465942,-15.833118305611
1.3580000400543,-15.914104124927
1.3600000143051,-15.994627895250
1.3619999885559,-16.074663727534
1.3639999628067,-16.154189319014
1.3660000562668,-16.233189413780
1.3680000305176,-16.311654650664
1.3700000047684,-16.389579232765
1.3719999790192,-16.466963331415
1.3739999532700,-16.543812999133
1.3760000467300,-16.620138382562
1.3780000209808,-16.695954368872
1.3799999952316,-16.771280991570
1.3819999694824,-16.846141833084
1.3839999437332,-16.920561793829
1.3860000371933,-16.994573143825
1.3880000114441,-17.068207652053
1.3899999856949,-17.141499693863
1.3919999599457,-17.214483856431
1.3940000534058,-17.287199733223
1.3960000276566,-17.359679820354
1.3980000019073,-17.431963851668
1.3999999761581,-17.504084382911
1.4019999504089,-17.576075415105
1.4040000438690,-17.647968311721
1.4060000181198,-17.719790667708
1.4079999923706,-17.791567045921
1.4099999666214,-17.863318529985
1.4119999408722,-17.935061384251
1.4140000343323,-18.006807146639
1.4160000085831,-18.078563555931
1.4179999828339,-18.150331052499
1.4199999570847,-18.222105730181
1.4220000505447,-18.293877974802
1.4240000247955,-18.365632185807
1.4259999990463,-18.437346391241
1.4279999732971,-18.508995025705
1.4299999475479,-18.580544507928
1.4320000410080,-18.651956945412
1.4340000152588,-18.723190094973
1.4359999895096,-18.794196208584
1.4379999637604,-18.864924198569
1.4400000572205,-18.935318147347
1.4420000314713,-19.005320155979
1.4440000057220,-19.074869154608
1.4459999799728,-19.143902909239
1.4479999542236,-19.212357425376
1.4500000476837,-19.280170839583
1.4520000219345,-19.347278869653
1.4539999961853,-19.413620266590
1.4559999704361,-19.479136481187
1.4579999446869,-19.543769593374
1.4600000381470,-19.607470018137
1.4620000123978,-19.670188979866
1.4639999866486,-19.731885021382
1.4659999608994,-19.792522282202
1.4680000543594,-19.852071343497
1.4700000286102,-19.910510602461
1.4720000028610,-19.967824983050
1.4739999771118,-20.024009236193
1.4759999513626,-20.079063655859
1.4780000448227,-20.132997657589
1.4800000190735,-20.185829632699
1.4819999933243,-20.237585124715
1.4839999675751,-20.288295711712
1.4859999418259,-20.338002618890
1.4880000352859,-20.386751386528
1.4900000095367,-20.434596824468
1.4919999837875,-20.481594572736
1.4939999580383,-20.527807244583
1.4960000514984,-20.573301766068
1.4980000257492,-20.618146529543
1.5000000000000,-20.662412331787
1.5019999742508,-20.706169961330
1.5039999485016,-20.749491681868
1.5060000419617,-20.792446511234
1.5080000162125,-20.835104047228
1.5099999904633,-20.877529527189
1.5119999647141,-20.919784418991
1.5140000581741,-20.961925707895
1.5160000324249,-21.004004993342
1.5180000066757,-21.046068288714
1.5199999809265,-21.088156097202
1.5219999551773,-21.130299270421
1.5240000486374,-21.172523659148
1.5260000228882,-21.214843558785
1.5279999971390,-21.257268945613
1.5299999713898,-21.299801164025
1.5319999456406,-21.342429595894
1.5340000391006,-21.385138766354
1.5360000133514,-21.427903175626
1.5379999876022,-21.470691022673
1.5399999618530,-21.513461223394
1.5420000553131,-21.556166200770
1.5440000295639,-21.598751957540
1.5460000038147,-21.641156629159
1.5479999780655,-21.683317198628
1.5499999523163,-21.725162684856
1.5520000457764,-21.766619965210
1.5540000200272,-21.807613185584
1.5559999942780,-21.848063843618
1.5579999685287,-21.887895269675
1.5599999427795,-21.927029967176
1.5620000362396,-21.965392552667
1.5640000104904,-22.002910919197
1.5659999847412,-22.039516279006
1.5679999589920,-22.075145138342
1.5700000524521,-22.109740900244
1.5720000267029,-22.143253449159
1.5740000009537,-22.175639466705
1.5759999752045,-22.206865620769
1.5779999494553,-22.236908231330
1.5800000429153,-22.265752044428
1.5820000171661,-22.293392580655
1.5839999914169,-22.319833046500
1.5859999656677,-22.345091583571
1.5880000591278,-22.369193510695
1.5900000333786,-22.392172230716
1.5920000076294,-22.414074345408
1.5939999818802,-22.434950131659
1.5959999561310,-22.454863740983
1.5980000495911,-22.473882085776
1.6000000238419,-22.492077469744
1.6019999980927,-22.509531633082
1.6039999723434,-22.526324845106
1.6059999465942,-22.542546326353
1.6080000400543,-22.558280554285
1.6100000143051,-22.573616871518
1.6119999885559,-22.588642792608
1.6139999628067,-22.603441677859
1.6160000562668,-22.618097196107
1.6180000305176,-22.632687084682
1.6200000047684,-22.647283494249
1.6219999790192,-22.661955024872
1.6239999532700,-22.676762309064
1.6260000467300,-22.691755858797
1.6280000209808,-22.706980228908
1.6299999952316,-22.722472792180
1.6319999694824,-22.738259395679
1.6339999437332,-22.754355175275
1.6360000371933,-22.770770138311
1.6380000114441,-22.787498923439
1.6399999856949,-22.804530735413
1.6419999599457,-22.821841588288
1.6440000534058,-22.839399871713
1.6460000276566,-22.857166347782
1.6480000019073,-22.875089669917
1.6499999761581,-22.893112468300
1.6519999504089,-22.911170233093
1.6540000438690,-22.929191496159
1.6560000181198,-22.947098240088
1.6579999923706,-22.964809957368
1.6599999666214,-22.982238073234
1.6619999408722,-22.999298144400
1.6640000343323,-23.015899938593
1.6660000085831,-23.031953004359
1.6679999828339,-23.047370911405
1.6699999570847,-23.062066571700
1.6720000505447,-23.075959945519
1.6740000247955,-23.088974454505
1.6759999990463,-23.101039476592
1.6779999732971,-23.112092615531
1.6799999475479,-23.122079680494
1.6820000410080,-23.130953994733
1.6840000152588,-23.138681136750
1.6859999895096,-23.145235254205
1.6879999637604,-23.150604387215
1.6900000572205,-23.154786212712
1.6920000314713,-23.157787413909
1.6940000057220,-23.159629387329
1.6959999799728,-23.160344743688
1.6979999542236,-23.159973208276
1.7000000476837,-23.158567779136
1.7020000219345,-23.156187167078
1.7039999961853,-23.152902578919
1.7059999704361,-23.148788143616
1.7079999446869,-23.143928345154
1.7100000381470,-23.138407793244
1.7120000123978,-23.132317187811
1.7139999866486,-23.125748374815
1.7159999608994,-23.118797642928
1.7180000543594,-23.111555735920
1.7200000286102,-23.104114555163
1.7220000028610,-23.096561981085
1.7239999771118,-23.088982537060
1.7259999513626,-23.081456449097
1.7280000448227,-23.074055942759
1.7300000190735,-23.066844964316
1.7319999933243,-23.059880506388
1.7339999675751,-23.053212683219
1.7359999418259,-23.046879475147
1.7380000352859,-23.040910370062
1.7400000095367,-23.035322744829
1.7419999837875,-23.030124979310
1.7439999580383,-23.025312769108
1.7460000514984,-23.020873927321
1.7480000257492,-23.016782671292
1.7500000000000,-23.013003408266
1.7519999742508,-23.009491929060
1.7539999485016,-23.006192228535
1.7560000419617,-23.003040278674
1.7580000162125,-22.999963936935
1.7599999904633,-22.996883778857
1.7619999647141,-22.993713712628
1.7640000581741,-22.990361273029
1.7660000324249,-22.986730506081
1.7680000066757,-22.982723525736
1.7699999809265,-22.978239370313
1.7719999551773,-22.973177728155
1.7740000486374,-22.967440249955
1.7760000228882,-22.960928570466
1.7779999971390,-22.953549295157
1.7799999713898,-22.945218613034
1.7819999456406,-22.935852976365
1.7840000391006,-22.925380144748
1.7860000133514,-22.913738798746
1.7879999876022,-22.900873950922
1.7899999618530,-22.886745745809
1.7920000553131,-22.871321152149
1.7940000295639,-22.854583620760
1.7960000038147,-22.836528553047
1.7979999780655,-22.817161362230
1.7999999523163,-22.796502394751
1.8020000457764,-22.774584001996
1.8040000200272,-22.751447353495
1.8059999942780,-22.727149237207
1.8079999685287,-22.701751378478
1.8099999427795,-22.675329427692
1.8120000362396,-22.647960911766
1.8140000104904,-22.619734013381
1.8159999847412,-22.590741571831
1.8179999589920,-22.561077108974
1.8200000524521,-22.530838822083
1.8220000267029,-22.500123368040
1.8240000009537,-22.469027345749
1.8259999752045,-22.437643494053
1.8279999494553,-22.406062895760
1.8300000429153,-22.374366323750
1.8320000171661,-22.342633255973
1.8339999914169,-22.310930860972
1.8359999656677,-22.279320338691
1.8380000591278,-22.247849158910
1.8400000333786,-22.216555662973
1.8420000076294,-22.185468130240
1.8439999818802,-22.154598699849
1.8459999561310,-22.123950280988
1.8480000495911,-22.093509984086
1.8500000238419,-22.063254291015
1.8519999980927,-22.033143689114
1.8539999723434,-22.003129540366
1.8559999465942,-21.973145868292
1.8580000400543,-21.943118873243
1.8600000143051,-21.912961990983
1.8619999885559,-21.882578395657
1.8639999628067,-21.851862782968
1.8660000562668,-21.820701376760
1.8680000305176,-21.788975365695
1.8700000047684,-21.756557925591
1.8719999790192,-21.723323125287
1.8739999532700,-21.689142616970
1.8760000467300,-21.653889458729
1.8780000209808,-21.617438278574
1.8799999952316,-21.579670897037
1.8819999694824,-21.540475577136
1.8839999437332,-21.499751403457
1.8860000371933,-21.457406260325
1.8880000114441,-21.413366334682
1.8899999856949,-21.367569839493
1.8919999599457,-21.319972209140
1.8940000534058,-21.270549936506
1.8960000276566,-21.219296333728
1.8980000019073,-21.166229372700
1.8999999761581,-21.111384465433
1.9019999504089,-21.054819846336
1.9040000438690,-20.996615706782
1.9060000181198,-20.936874452216
1.9079999923706,-20.875717351021
1.9099999666214,-20.813284388751
1.9119999408722,-20.749738017637
1.9140000343323,-20.685254079503
1.9160000085831,-20.620026257859
1.9179999828339,-20.554261445859
1.9199999570847,-20.488178571771
1.9220000505447,-20.422006231727
1.9240000247955,-20.355983941627
1.9259999990463,-20.290354993566
1.9279999732971,-20.225371142148
1.9299999475479,-20.161285405164
1.9320000410080,-20.098352072891
1.9340000152588,-20.036828423852
1.9359999895096,-19.976970162735
1.9379999637604,-19.919028096376
1.9400000572205,-19.863254244774
1.9420000314713,-19.809895393676
1.9440000057220,-19.759193137352
1.9459999799728,-19.711383718655
1.9479999542236,-19.666700540537
1.9500000476837,-19.625369158807
1.9520000219345,-19.587609596721
1.9539999961853,-19.553636295914
1.9559999704361,-19.523658397244
1.9579999446869,-19.497878338256
1.9600000381470,-19.476493109337
1.9620000123978,-19.459694459925
1.9639999866486,-19.447670764477
1.9659999608994,-19.440602256348
1.9680000543594,-19.438669347613
1.9700000286102,-19.442045290885
1.9720000028610,-19.450902243630
1.9739999771118,-19.465408089511
1.9759999513626,-19.485729945966
1.9780000448227,-19.512031959353
1.9800000190735,-19.544479252811
1.9819999933243,-19.583234627023
1.9839999675751,-19.628461088256
1.9859999418259,-19.680324248592
1.9880000352859,-19.738990022300
1.9900000095367,-19.804625857636
1.9919999837875,-19.877404055672
1.9939999580383,-19.957499425740
1.9960000514984,-20.045091056004
1.9980000257492,-20.140362844028
2.0000000000000,-20.243505574469
2.0020000934601,-20.354717378014
2.0039999485016,-20.474202661946
2.0060000419617,-20.602175469776
2.0079998970032,-20.738858665219
2.0099999904633,-20.884487575310
2.0120000839233,-21.039308085486
2.0139999389648,-21.203580322423
2.0160000324249,-21.377576237931
2.0179998874664,-21.561585559390
2.0199999809265,-21.755917103273
2.0220000743866,-21.960892096369
2.0239999294281,-22.176858326762
2.0260000228882,-22.404179755224
2.0280001163483,-22.643246770526
2.0299999713898,-22.894472359435
2.0320000648499,-23.158298585244
2.0339999198914,-23.435190954219
2.0360000133514,-23.725645844078
2.0380001068115,-24.030186770772
2.0399999618530,-24.349367252301
2.0420000553131,-24.683764533960
2.0439999103546,-25.033982395356
2.0460000038147,-25.400642353590
2.0480000972748,-25.784373599107
2.0499999523163,-26.185798672830
2.0520000457764,-26.605515448954
2.0539999008179,-27.044056895842
2.0559999942780,-27.501855357174
2.0580000877380,-27.979165257340
2.0599999427795,-28.475969663644
2.0620000362396,-28.991841773419
2.0639998912811,-29.525761788012
2.0659999847412,-30.075842454253
2.0680000782013,-30.638988286757
2.0699999332428,-31.210446025723
2.0720000267029,-31.783257970457
2.0739998817444,-32.347676289000
2.0759999752045,-32.890662478675
2.0780000686646,-33.395710632769
2.0799999237061,-33.843379818759
2.0820000171661,-34.212906154785
2.0840001106262,-34.485064730897
2.0859999656677,-34.645810868310
2.0880000591278,-34.689525001110
2.0899999141693,-34.620443849974
2.0920000076294,-34.451577900248
2.0940001010895,-34.201638370219
2.0959999561310,-33.891372967664
2.0980000495911,-33.540542742131
2.0999999046326,-33.166128774447
2.1019999980927,-32.781665276738
2.1040000915527,-32.397342379622
2.1059999465942,-32.020474165703
2.1080000400543,-31.656086663290
2.1099998950958,-31.307467696942
2.1119999885559,-30.976635094527
2.1140000820160,-30.664695404907
2.1159999370575,-30.372118248775
2.1180000305176,-30.098936319514
2.1199998855591,-29.844888275047
2.1219999790192,-29.609519338322
2.1240000724792,-29.392254512539
2.1259999275208,-29.192441293489
2.1280000209808,-29.009390704993
2.1300001144409,-28.842393461749
2.1319999694824,-28.690740581308
2.1340000629425,-28.553726140743
2.1359999179840,-28.430656213426
2.1380000114441,-28.320851247990
2.1400001049042,-28.223645256136
2.1419999599457,-28.138391177630
2.1440000534058,-28.064449747410
2.1459999084473,-28.001197420976
2.1480000019073,-27.948020098690
2.1500000953674,-27.904309415283
2.1519999504089,-27.869466008095
2.1540000438690,-27.842894782782
2.1559998989105,-27.824002133031
2.1579999923706,-27.812195449705
2.1600000858307,-27.806885038615
2.1619999408722,-27.807479673318
2.1640000343323,-27.813388692109
2.1659998893738,-27.824021476307
2.1679999828339,-27.838789063444
2.1700000762939,-27.857105535648
2.1719999313354,-27.878390452077
2.1740000247955,-27.902071574916
2.1760001182556,-27.927586502931
2.1779999732971,-27.954387830053
2.1800000667572,-27.981949256778
2.1819999217987,-28.009766303774
2.1840000152588,-28.037364712966
2.1860001087189,-28.064303436415
2.1879999637604,-28.090178464351
2.1900000572205,-28.114629759535
2.1919999122620,-28.137346110832
2.1940000057220,-28.158065141444
2.1960000991821,-28.176580264917
2.1979999542236,-28.192736757998
2.2000000476837,-28.206443920648
2.2019999027252,-28.217660381207
2.2039999961853,-28.226404440305
2.2060000896454,-28.232747959742
2.2079999446869,-28.236811258382
