frequency,refcoef
1.0000000000000,-11.698000597276
1.0019999742508,-11.626534829486
1.0039999485016,-11.558130546391
1.0060000419617,-11.492742079046
1.0080000162125,-11.430321517282
1.0099999904633,-11.370815789203
1.0119999647141,-11.314168643147
1.0140000581741,-11.260319847445
1.0160000324249,-11.209205229966
1.0180000066757,-11.160758253997
1.0199999809265,-11.114909528994
1.0219999551773,-11.071583584959
1.0240000486374,-11.030705419363
1.0260000228882,-10.992192302868
1.0279999971390,-10.955965129406
1.0299999713898,-10.921937774744
1.0319999456406,-10.890020006563
1.0340000391006,-10.860124898167
1.0360000133514,-10.832159968270
1.0379999876022,-10.806030071532
1.0399999618530,-10.781642435044
1.0420000553131,-10.758900915651
1.0440000295639,-10.737707759243
1.0460000038147,-10.717965565460
1.0479999780655,-10.699578173318
1.0499999523163,-10.682449302971
1.0520000457764,-10.666481425623
1.0540000200272,-10.651581675488
1.0559999942780,-10.637655580240
1.0579999685287,-10.624611130359
1.0599999427795,-10.612362309950
1.0620000362396,-10.600820790158
1.0640000104904,-10.589906572544
1.0659999847412,-10.579538515800
1.0679999589920,-10.569644643884
1.0700000524521,-10.560153054086
1.0720000267029,-10.550999170726
1.0740000009537,-10.542123016027
1.0759999752045,-10.533468795393
1.0779999494553,-10.524990003084
1.0800000429153,-10.516640717336
1.0820000171661,-10.508385190692
1.0839999914169,-10.500191480459
1.0859999656677,-10.492036124576
1.0880000591278,-10.483897405012
1.0900000333786,-10.475763666081
1.0920000076294,-10.467627557782
1.0939999818802,-10.459488090939
1.0959999561310,-10.451347531696
1.0980000495911,-10.443217156082
1.1000000238419,-10.435109777154
1.1019999980927,-10.427043473976
1.1039999723434,-10.419041766811
1.1059999465942,-10.411130940501
1.1080000400543,-10.403341682893
1.1100000143051,-10.395704674207
1.1119999885559,-10.388255773973
1.1139999628067,-10.381033262925
1.1160000562668,-10.374073746387
1.1180000305176,-10.367419062095
1.1200000047684,-10.361106818155
1.1219999790192,-10.355179520133
1.1239999532700,-10.349675913617
1.1260000467300,-10.344633579915
1.1280000209808,-10.340093085061
1.1299999952316,-10.336091223250
1.1319999694824,-10.332660420374
1.1339999437332,-10.329833931005
1.1360000371933,-10.327643228615
1.1380000114441,-10.326115805110
1.1399999856949,-10.325276130329
1.1419999599457,-10.325145918804
1.1440000534058,-10.325745496705
1.1460000276566,-10.327089255919
1.1480000019073,-10.329189996135
1.1499999761581,-10.332057024798
1.1519999504089,-10.335697313467
1.1540000438690,-10.340112270805
1.1560000181198,-10.345303596802
1.1579999923706,-10.351266046132
1.1599999666214,-10.357995650977
1.1619999408722,-10.365483424810
1.1640000343323,-10.373716570598
1.1660000085831,-10.382683901388
1.1679999828339,-10.392370039530
1.1699999570847,-10.402756512476
1.1720000505447,-10.413826485602
1.1740000247955,-10.425558326424
1.1759999990463,-10.437933814739
1.1779999732971,-10.450931285902
1.1799999475479,-10.464528836778
1.1820000410080,-10.478705644363
1.1840000152588,-10.493443136767
1.1859999895096,-10.508719474695
1.1879999637604,-10.524515931904
1.1900000572205,-10.540817309635
1.1920000314713,-10.557607390955
1.1940000057220,-10.574872202479
1.1959999799728,-10.592601560333
1.1979999542236,-10.610787974170
1.2000000476837,-10.629422395882
1.2020000219345,-10.648504143599
1.2039999961853,-10.668034379349
1.2059999704361,-10.688015932461
1.2079999446869,-10.708454678382
1.2100000381470,-10.729360759191
1.2120000123978,-10.750748774968
1.2139999866486,-10.772634519594
1.2159999608994,-10.795037377291
1.2180000543594,-10.817982983579
1.2200000286102,-10.841497383491
1.2220000028610,-10.865607826370
1.2239999771118,-10.890346670674
1.2259999513626,-10.915749900035
1.2280000448227,-10.941854033445
1.2300000190735,-10.968697917816
1.2319999933243,-10.996321463788
1.2339999675751,-11.024767231716
1.2359999418259,-11.054078880982
1.2380000352859,-11.084298548757
1.2400000095367,-11.115473000638
1.2419999837875,-11.147646004438
1.2439999580383,-11.180861245519
1.2460000514984,-11.215161739204
1.2480000257492,-11.250591473151
1.2500000000000,-11.287190589864
1.2519999742508,-11.325001024600
1.2539999485016,-11.364057616389
1.2560000419617,-11.404398358671
1.2580000162125,-11.446054377230
1.2599999904633,-11.489057041055
1.2619999647141,-11.533432502552
1.2640000581741,-11.579203599927
1.2660000324249,-11.626390667387
1.2680000066757,-11.675010657510
1.2699999809265,-11.725072806331
1.2719999551773,-11.776587636764
1.2740000486374,-11.829556998921
1.2760000228882,-11.883978211753
1.2779999971390,-11.939846404834
1.2799999713898,-11.997151476619
1.2819999456406,-12.055875382668
1.2840000391006,-12.115999682947
1.2860000133514,-12.177498956958
1.2879999876022,-12.240342696460
1.2899999618530,-12.304496262625
1.2920000553131,-12.369919623583
1.2940000295639,-12.436570241577
1.2960000038147,-12.504398040986
1.2979999780655,-12.573351939715
1.2999999523163,-12.643375833195
1.3020000457764,-12.714409649189
1.3040000200272,-12.786391343376
1.3059999942780,-12.859254440780
1.3079999685287,-12.932930637771
1.3099999427795,-13.007348456500
1.3120000362396,-13.082437585503
1.3140000104904,-13.158124749572
1.3159999847412,-13.234334557033
1.3179999589920,-13.310994526663
1.3200000524521,-13.388030880351
1.3220000267029,-13.465371469783
1.3240000009537,-13.542944069394
1.3259999752045,-13.620682496573
1.3279999494553,-13.698517549266
1.3300000429153,-13.776390724309
1.3320000171661,-13.854239651473
1.3339999914169,-13.932010865501
1.3359999656677,-14.009655210511
1.3380000591278,-14.087127837855
1.3400000333786,-14.164388513260
1.3420000076294,-14.241404070672
1.3439999818802,-14.318148748909
1.3459999561310,-14.394599774833
1.3480000495911,-14.470742253922
1.3500000238419,-14.546568044062
1.3519999980927,-14.622074787297
1.3539999723434,-14.697264876504
1.3559999465942,-14.772148750016
1.3580000400543,-14.846740044866
1.3600000143051,-14.921060638032
1.3619999885559,-14.995133252178
1.3639999628067,-15.068986985171
1.3660000562668,-15.142654416262
1.3680000305176,-15.216170135117
1.3700000047684,-15.289571718570
1.3719999790192,-15.362900441966
1.3739999532700,-15.436192909548
1.3760000467300,-15.509491446196
1.3780000209808,-15.582834913051
1.3799999952316,-15.656262143048
1.3819999694824,-15.729808840933
1.3839999437332,-15.803510177012
1.3860000371933,-15.877395358013
1.3880000114441,-15.951491769718
1.3899999856949,-16.025819818147
1.3919999599457,-16.100397295897
1.3940000534058,-16.175236704713
1.3960000276566,-16.250342170547
1.3980000019073,-16.325712249562
1.3999999761581,-16.401340471802
1.4019999504089,-16.477212354250
1.4040000438690,-16.553306429717
1.4060000181198,-16.629594007500
1.4079999923706,-16.706042364896
1.4099999666214,-16.782607138511
1.4119999408722,-16.859242191154
1.4140000343323,-16.935891276613
1.4160000085831,-17.012496167444
1.4179999828339,-17.088991036914
1.4199999570847,-17.165304630656
1.4220000505447,-17.241364491461
1.4240000247955,-17.317093815380
1.4259999990463,-17.392412637262
1.4279999732971,-17.467240746359
1.4299999475479,-17.541495314021
1.4320000410080,-17.615099121492
1.4340000152588,-17.687970975764
1.4359999895096,-17.760035290313
1.4379999637604,-17.831220742546
1.4400000572205,-17.901459406337
1.4420000314713,-17.970689362336
1.4440000057220,-18.038857827436
1.4459999799728,-18.105914942682
1.4479999542236,-18.171825215371
1.4500000476837,-18.236557658556
1.4520000219345,-18.300093174909
1.4539999961853,-18.362423332138
1.4559999704361,-18.423547693033
1.4579999446869,-18.483479524160
1.4600000381470,-18.542239261960
1.4620000123978,-18.599862375873
1.4639999866486,-18.656389198221
1.4659999608994,-18.711872230250
1.4680000543594,-18.766372893454
1.4700000286102,-18.819960033451
1.4720000028610,-18.872708115503
1.4739999771118,-18.924702015142
1.4759999513626,-18.976026947910
1.4780000448227,-19.026775010316
1.4800000190735,-19.077040253293
1.4819999933243,-19.126917811427
1.4839999675751,-19.176503319254
1.4859999418259,-19.225891642035
1.4880000352859,-19.275175067962
1.4900000095367,-19.324442298017
1.4919999837875,-19.373779011374
1.4939999580383,-19.423262943616
1.4960000514984,-19.472967479939
1.4980000257492,-19.522957494826
1.5000000000000,-19.573288909718
1.5019999742508,-19.624010143701
1.5039999485016,-19.675159750961
1.5060000419617,-19.726763620310
1.5080000162125,-19.778841493733
1.5099999904633,-19.831397039291
1.5119999647141,-19.884428293475
1.5140000581741,-19.937917070733
1.5160000324249,-19.991836548863
1.5180000066757,-20.046151006188
1.5199999809265,-20.100809301583
1.5219999551773,-20.155754169966
1.5240000486374,-20.210917435783
1.5260000228882,-20.266223103079
1.5279999971390,-20.321585025571
1.5299999713898,-20.376910770375
1.5319999456406,-20.432105226056
1.5340000391006,-20.487062950914
1.5360000133514,-20.541680186770
1.5379999876022,-20.595848143309
1.5399999618530,-20.649458902287
1.5420000553131,-20.702404397749
1.5440000295639,-20.754580367612
1.5460000038147,-20.805886322289
1.5479999780655,-20.856226823061
1.5499999523163,-20.905515012362
1.5520000457764,-20.953671540934
1.5540000200272,-21.000626740510
1.5559999942780,-21.046323723531
1.5579999685287,-21.090718276397
1.5599999427795,-21.133776159211
1.5620000362396,-21.175480971618
1.5640000104904,-21.215827559899
1.5659999847412,-21.254826854137
1.5679999589920,-21.292506556040
1.5700000524521,-21.328902895947
1.5720000267029,-21.364071888587
1.5740000009537,-21.398079779408
1.5759999752045,-21.431006861209
1.5779999494553,-21.462941047192
1.5800000429153,-21.493983625282
1.5820000171661,-21.524244612656
1.5839999914169,-21.553838939589
1.5859999656677,-21.582887458592
1.5880000591278,-21.611516282489
1.5900000333786,-21.639850582794
1.5920000076294,-21.668019155266
1.5939999818802,-21.696146080760
1.5959999561310,-21.724357193275
1.5980000495911,-21.752769184212
1.6000000238419,-21.781494821840
1.6019999980927,-21.810638558050
1.6039999723434,-21.840299099335
1.6059999465942,-21.870558516475
1.6080000400543,-21.901495347014
1.6100000143051,-21.933172259592
1.6119999885559,-21.965639984096
1.6139999628067,-21.998935485563
1.6160000562668,-22.033081193947
1.6180000305176,-22.068088493921
1.6200000047684,-22.103950106375
1.6219999790192,-22.140647290236
1.6239999532700,-22.178143425873
1.6260000467300,-22.216390146940
1.6280000209808,-22.255323304123
1.6299999952316,-22.294868440226
1.6319999694824,-22.334934910867
1.6339999437332,-22.375419529597
1.6360000371933,-22.416211985357
1.6380000114441,-22.457191160718
1.6399999856949,-22.498224591485
1.6419999599457,-22.539177102826
1.6440000534058,-22.579906602174
1.6460000276566,-22.620268068351
1.6480000019073,-22.660115513948
1.6499999761581,-22.699303588135
1.6519999504089,-22.737689108367
1.6540000438690,-22.775137077915
1.6560000181198,-22.811516240730
1.6579999923706,-22.846706183444
1.6599999666214,-22.880597979113
1.6619999408722,-22.913097075181
1.6640000343323,-22.944122304018
1.6660000085831,-22.973609394249
1.6679999828339,-23.001512590667
1.6699999570847,-23.027805151092
1.6720000505447,-23.052477991202
1.6740000247955,-23.075545423868
1.6759999990463,-23.097037916235
1.6779999732971,-23.117007504628
1.6799999475479,-23.135525292503
1.6820000410080,-23.152678190167
1.6840000152588,-23.168572090018
1.6859999895096,-23.183326474744
1.6879999637604,-23.197074985492
1.6900000572205,-23.209961861145
1.6920000314713,-23.222140019819
1.6940000057220,-23.233771698657
1.6959999799728,-23.245020851141
1.6979999542236,-23.256055401321
1.7000000476837,-23.267044732920
1.7020000219345,-23.278153652900
1.7039999961853,-23.289545722482
1.7059999704361,-23.301375033797
1.7079999446869,-23.313789701197
1.7100000381470,-23.326929654841
1.7120000123978,-23.340916845828
1.7139999866486,-23.355868659141
1.7159999608994,-23.371882519375
1.7180000543594,-23.389042513037
1.7200000286102,-23.407414843500
1.7220000028610,-23.427049759603
1.7239999771118,-23.447979205138
1.7259999513626,-23.470215533982
1.7280000448227,-23.493754690877
1.7300000190735,-23.518570711111
1.7319999933243,-23.544619701367
1.7339999675751,-23.571839260452
1.7359999418259,-23.600149301959
1.7380000352859,-23.629449929272
1.7400000095367,-23.659625545051
1.7419999837875,-23.690544537683
1.7439999580383,-23.722058301986
1.7460000514984,-23.754007172225
1.7480000257492,-23.786219281944
1.7500000000000,-23.818513798135
1.7519999742508,-23.850701067218
1.7539999485016,-23.882584747968
1.7560000419617,-23.913970308178
1.7580000162125,-23.944660541913
1.7599999904633,-23.974463123306
1.7619999647141,-24.003187822320
1.7640000581741,-24.030658620495
1.7660000324249,-24.056711354063
1.7680000066757,-24.081192876601
1.7699999809265,-24.103972095384
1.7719999551773,-24.124937941265
1.7740000486374,-24.144001413474
1.7760000228882,-24.161099234024
1.7779999971390,-24.176192714099
1.7799999713898,-24.189271915722
1.7819999456406,-24.200356747658
1.7840000391006,-24.209492230717
1.7860000133514,-24.216750885707
1.7879999876022,-24.222235690792
1.7899999618530,-24.226069757151
1.7920000553131,-24.228402647796
1.7940000295639,-24.229403940132
1.7960000038147,-24.229263024426
1.7979999780655,-24.228182822891
1.7999999523163,-24.226379053575
1.8020000457764,-24.224078020770
1.8040000200272,-24.221511386120
1.8059999942780,-24.218914296025
1.8079999685287,-24.216520391672
1.8099999427795,-24.214560083255
1.8120000362396,-24.213259137419
1.8140000104904,-24.212831065980
1.8159999847412,-24.213480787942
1.8179999589920,-24.215396302861
1.8200000524521,-24.218749606217
1.8220000267029,-24.223692989463
1.8240000009537,-24.230360614431
1.8259999752045,-24.238860358485
1.8279999494553,-24.249279125634
1.8300000429153,-24.261674788945
1.8320000171661,-24.276080029802
1.8339999914169,-24.292498946964
1.8359999656677,-24.310905725810
1.8380000591278,-24.331243862753
1.8400000333786,-24.353426169167
1.8420000076294,-24.377333949352
1.8439999818802,-24.402814156597
1.8459999561310,-24.429683639219
1.8480000495911,-24.457727492704
1.8500000238419,-24.486697277575
1.8519999980927,-24.516314861033
1.8539999723434,-24.546271228770
1.8559999465942,-24.576232772411
1.8580000400543,-24.605838407639
1.8600000143051,-24.634705343482
1.8619999885559,-24.662432450318
1.8639999628067,-24.688605993175
1.8660000562668,-24.712802320732
1.8680000305176,-24.734594449020
1.8700000047684,-24.753557851323
1.8719999790192,-24.769279104688
1.8739999532700,-24.781362149742
1.8760000467300,-24.789432935654
1.8780000209808,-24.793150541745
1.8799999952316,-24.792210757289
1.8819999694824,-24.786355730123
1.8839999437332,-24.775374803556
1.8860000371933,-24.759114890766
1.8880000114441,-24.737478499524
1.8899999856949,-24.710429648010
1.8919999599457,-24.677990528433
1.8940000534058,-24.640244999433
1.8960000276566,-24.597332451824
1.8980000019073,-24.549446238433
1.8999999761581,-24.496827302772
1.9019999504089,-24.439762510945
1.9040000438690,-24.378569405683
1.9060000181198,-24.313598534414
1.9079999923706,-24.245220928175
1.9099999666214,-24.173822224388
1.9119999408722,-24.099794871581
1.9140000343323,-24.023531981447
1.9160000085831,-23.945421269697
1.9179999828339,-23.865839391634
1.9199999570847,-23.785145898984
1.9220000505447,-23.703680054134
1.9240000247955,-23.621756069868
1.9259999990463,-23.539662584226
1.9279999732971,-23.457657667320
1.9299999475479,-23.375969230065
1.9320000410080,-23.294790067787
1.9340000152588,-23.214283156326
1.9359999895096,-23.134578340274
1.9379999637604,-23.055768209735
1.9400000572205,-22.977915071295
1.9420000314713,-22.901051924297
1.9440000057220,-22.825177988026
1.9459999799728,-22.750262508325
1.9479999542236,-22.676248240512
1.9500000476837,-22.603051122192
1.9520000219345,-22.530564694460
1.9539999961853,-22.458656966594
1.9559999704361,-22.387179384386
1.9579999446869,-22.315966103532
1.9600000381470,-22.244835189655
1.9620000123978,-22.173599165747
1.9639999866486,-22.102055053987
1.9659999608994,-22.030000740016
1.9680000543594,-21.957231498171
1.9700000286102,-21.883547380666
1.9720000028610,-21.808750167648
1.9739999771118,-21.732654084476
1.9759999513626,-21.655087789458
1.9780000448227,-21.575893580109
1.9800000190735,-21.494936302422
1.9819999933243,-21.412098793478
1.9839999675751,-21.327292453468
1.9859999418259,-21.240453247798
1.9880000352859,-21.151546994623
1.9900000095367,-21.060567658733
1.9919999837875,-20.967538501730
1.9939999580383,-20.872514020606
1.9960000514984,-20.775577640719
1.9980000257492,-20.676841098120
2.0000000000000,-20.576442812639
2.0020000934601,-20.474544577545
2.0039999485016,-20.371334275268
2.0060000419617,-20.267018231169
2.0079998970032,-20.161821324955
2.0099999904633,-20.055982495002
2.0120000839233,-19.949754439744
2.0139999389648,-19.843398253572
2.0160000324249,-19.737180734900
2.0179998874664,-19.631375303543
2.0199999809265,-19.526256160473
2.0220000743866,-19.422095807766
2.0239999294281,-19.319166710833
2.0260000228882,-19.217733179429
2.0280001163483,-19.118058727267
2.0299999713898,-19.020394790457
2.0320000648499,-18.924987871085
2.0339999198914,-18.832072207372
2.0360000133514,-18.741876273857
2.0380001068115,-18.654613509213
2.0399999618530,-18.570488255605
2.0420000553131,-18.489694933110
2.0439999103546,-18.412415819159
2.0460000038147,-18.338822582471
2.0480000972748,-18.269073950814
2.0499999523163,-18.203320148474
2.0520000457764,-18.141698784930
2.0539999008179,-18.084337161705
2.0559999942780,-18.031354320449
2.0580000877380,-17.982858385163
2.0599999427795,-17.938945742443
2.0620000362396,-17.899705531367
2.0639998912811,-17.865219416012
2.0659999847412,-17.835556852135
2.0680000782013,-17.810781314390
2.0699999332428,-17.790945931807
2.0720000267029,-17.776097052636
2.0739998817444,-17.766274437588
2.0759999752045,-17.761505265327
2.0780000686646,-17.761815851448
2.0799999237061,-17.767217947742
2.0820000171661,-17.777719820019
2.0840001106262,-17.793319764642
2.0859999656677,-17.814009249653
2.0880000591278,-17.839771603731
2.0899999141693,-17.870581901275
2.0920000076294,-17.906404747833
2.0940001010895,-17.947197818673
2.0959999561310,-17.992908823723
2.0980000495911,-18.043474999120
2.0999999046326,-18.098825393351
2.1019999980927,-18.158875944443
2.1040000915527,-18.223532863295
2.1059999465942,-18.292690128765
2.1080000400543,-18.366229034753
2.1099998950958,-18.444017517933
2.1119999885559,-18.525910888513
2.1140000820160,-18.611749860405
2.1159999370575,-18.701358926292
2.1180000305176,-18.794548494630
2.1199998855591,-18.891113121983
2.1219999790192,-18.990829453342
2.1240000724792,-19.093457850570
2.1259999275208,-19.198743989987
2.1280000209808,-19.306413391096
2.1300001144409,-19.416176794880
2.1319999694824,-19.527728128488
2.1340000629425,-19.640747192522
2.1359999179840,-19.754896673779
2.1380000114441,-19.869831177493
2.1400001049042,-19.985190787294
2.1419999599457,-20.100607988354
2.1440000534058,-20.215710361216
2.1459999084473,-20.330122089878
2.1480000019073,-20.443468773093
2.1500000953674,-20.555380250485
2.1519999504089,-20.665497534485
2.1540000438690,-20.773475813529
2.1559998989105,-20.878985735568
2.1579999923706,-20.981725635620
2.1600000858307,-21.081420316091
2.1619999408722,-21.177826250519
2.1640000343323,-21.270738207859
2.1659998893738,-21.359991540570
2.1679999828339,-21.445464919070
2.1700000762939,-21.527079684428
2.1719999313354,-21.604808543418
2.1740000247955,-21.678668845316
2.1760001182556,-21.748724224654
2.1779999732971,-21.815084960665
2.1800000667572,-21.877902979725
2.1819999217987,-21.937372417523
2.1840000152588,-21.993720753722
2.1860001087189,-22.047206792868
2.1879999637604,-22.098120864930
2.1900000572205,-22.146768760049
2.1919999122620,-22.193478418888
2.1940000057220,-22.238587405792
2.1960000991821,-22.282441645949
2.1979999542236,-22.325385987064
2.2000000476837,-22.367767177650
2.2019999027252,-22.409922866463
2.2039999961853,-22.452180982677
2.2060000896454,-22.494858715838
2.2079999446869,-22.538252974286
