frequency,refcoef
1.0000000000000,-19.150168440274
1.0019999742508,-19.192576647480
1.0039999485016,-19.236307715043
1.0060000419617,-19.281082881161
1.0080000162125,-19.326619234487
1.0099999904633,-19.372629920253
1.0119999647141,-19.418830039256
1.0140000581741,-19.464933776837
1.0160000324249,-19.510664270093
1.0180000066757,-19.555747725612
1.0199999809265,-19.599927366931
1.0219999551773,-19.642958114448
1.0240000486374,-19.684613274219
1.0260000228882,-19.724685826371
1.0279999971390,-19.762993767506
1.0299999713898,-19.799381062761
1.0319999456406,-19.833717440949
1.0340000391006,-19.865904032143
1.0360000133514,-19.895869824023
1.0379999876022,-19.923575386830
1.0399999618530,-19.949012620000
1.0420000553131,-19.972200715022
1.0440000295639,-19.993188027653
1.0460000038147,-20.012047963504
1.0479999780655,-20.028877512719
1.0499999523163,-20.043794169207
1.0520000457764,-20.056933150951
1.0540000200272,-20.068441311818
1.0559999942780,-20.078478602791
1.0579999685287,-20.087207275414
1.0599999427795,-20.094795826968
1.0620000362396,-20.101408701430
1.0640000104904,-20.107207280032
1.0659999847412,-20.112345135282
1.0679999589920,-20.116964855950
1.0700000524521,-20.121195553300
1.0720000267029,-20.125150264720
1.0740000009537,-20.128926873437
1.0759999752045,-20.132601421003
1.0779999494553,-20.136232526377
1.0800000429153,-20.139856399027
1.0820000171661,-20.143488480941
1.0839999914169,-20.147126233415
1.0859999656677,-20.150741392801
1.0880000591278,-20.154291651174
1.0900000333786,-20.157714800784
1.0920000076294,-20.160930402132
1.0939999818802,-20.163846483680
1.0959999561310,-20.166355057289
1.0980000495911,-20.168340402650
1.1000000238419,-20.169679970429
1.1019999980927,-20.170244454258
1.1039999723434,-20.169903682087
1.1059999465942,-20.168530810631
1.1080000400543,-20.166000540113
1.1100000143051,-20.162196694202
1.1119999885559,-20.157012029693
1.1139999628067,-20.150354190634
1.1160000562668,-20.142144331455
1.1180000305176,-20.132320237458
1.1200000047684,-20.120840610192
1.1219999790192,-20.107683154882
1.1239999532700,-20.092845342676
1.1260000467300,-20.076350714468
1.1280000209808,-20.058237433678
1.1299999952316,-20.038569662058
1.1319999694824,-20.017429015287
1.1339999437332,-19.994915596915
1.1360000371933,-19.971145601159
1.1380000114441,-19.946252117855
1.1399999856949,-19.920378127377
1.1419999599457,-19.893677984994
1.1440000534058,-19.866311597780
1.1460000276566,-19.838445213814
1.1480000019073,-19.810248534233
1.1499999761581,-19.781886642853
1.1519999504089,-19.753527208186
1.1540000438690,-19.725329710069
1.1560000181198,-19.697447808841
1.1579999923706,-19.670026910817
1.1599999666214,-19.643202494295
1.1619999408722,-19.617098720220
1.1640000343323,-19.591827269474
1.1660000085831,-19.567487138457
1.1679999828339,-19.544161440660
1.1699999570847,-19.521923113780
1.1720000505447,-19.500828384622
1.1740000247955,-19.480921397314
1.1759999990463,-19.462231430907
1.1779999732971,-19.444776667089
1.1799999475479,-19.428562615869
1.1820000410080,-19.413584271783
1.1840000152588,-19.399826842425
1.1859999895096,-19.387264148754
1.1879999637604,-19.375868023393
1.1900000572205,-19.365599814234
1.1920000314713,-19.356418479851
1.1940000057220,-19.348279427546
1.1959999799728,-19.341136187256
1.1979999542236,-19.334944508538
1.2000000476837,-19.329659287676
1.2020000219345,-19.325239319621
1.2039999961853,-19.321648820525
1.2059999704361,-19.318855414747
1.2079999446869,-19.316834981004
1.2100000381470,-19.315572426748
1.2120000123978,-19.315057758236
1.2139999866486,-19.315293036421
1.2159999608994,-19.316288788111
1.2180000543594,-19.318065636566
1.2200000286102,-19.320653541196
1.2220000028610,-19.324093186372
1.2239999771118,-19.328435074263
1.2259999513626,-19.333736684843
1.2280000448227,-19.340065394118
1.2300000190735,-19.347497772762
1.2319999933243,-19.356111764560
1.2339999675751,-19.365997506036
1.2359999418259,-19.377243674426
1.2380000352859,-19.389945549516
1.2400000095367,-19.404198888361
1.2419999837875,-19.420101518525
1.2439999580383,-19.437748721740
1.2460000514984,-19.457235124770
1.2480000257492,-19.478652077838
1.2500000000000,-19.502086940158
1.2519999742508,-19.527619542410
1.2539999485016,-19.555326529040
1.2560000419617,-19.585274296396
1.2580000162125,-19.617522284944
1.2599999904633,-19.652120591317
1.2619999647141,-19.689108737527
1.2640000581741,-19.728516101590
1.2660000324249,-19.770363771967
1.2680000066757,-19.814657356447
1.2699999809265,-19.861394122041
1.2719999551773,-19.910559948806
1.2740000486374,-19.962127951974
1.2760000228882,-20.016061685501
1.2779999971390,-20.072312491971
1.2799999713898,-20.130822894187
1.2819999456406,-20.191524151526
1.2840000391006,-20.254339215047
1.2860000133514,-20.319183618756
1.2879999876022,-20.385964358246
1.2899999618530,-20.454582315225
1.2920000553131,-20.524934412363
1.2940000295639,-20.596914070359
1.2960000038147,-20.670411253168
1.2979999780655,-20.745315152262
1.2999999523163,-20.821516896312
1.3020000457764,-20.898908585936
1.3040000200272,-20.977386765926
1.3059999942780,-21.056851731255
1.3079999685287,-21.137211279537
1.3099999427795,-21.218381284407
1.3120000362396,-21.300287113258
1.3140000104904,-21.382860671907
1.3159999847412,-21.466049711022
1.3179999589920,-21.549811587083
1.3200000524521,-21.634114854356
1.3220000267029,-21.718941759020
1.3240000009537,-21.804284530057
1.3259999752045,-21.890151679851
1.3279999494553,-21.976560394370
1.3300000429153,-22.063538270812
1.3320000171661,-22.151124349413
1.3339999914169,-22.239366061025
1.3359999656677,-22.328317741928
1.3380000591278,-22.418039457905
1.3400000333786,-22.508597082308
1.3420000076294,-22.600054066000
1.3439999818802,-22.692478764459
1.3459999561310,-22.785937349963
1.3480000495911,-22.880491034954
1.3500000238419,-22.976196225513
1.3519999980927,-23.073104001186
1.3539999723434,-23.171253873279
1.3559999465942,-23.270676259938
1.3580000400543,-23.371388412381
1.3600000143051,-23.473397307724
1.3619999885559,-23.576693057750
1.3639999628067,-23.681251737514
1.3660000562668,-23.787032140311
1.3680000305176,-23.893979822316
1.3700000047684,-24.002019829318
1.3719999790192,-24.111067459036
1.3739999532700,-24.221016815796
1.3760000467300,-24.331750351967
1.3780000209808,-24.443139135641
1.3799999952316,-24.555038332761
1.3819999694824,-24.667298066957
1.3839999437332,-24.779758077991
1.3860000371933,-24.892254737512
1.3880000114441,-25.004622391628
1.3899999856949,-25.116695314895
1.3919999599457,-25.228312351881
1.3940000534058,-25.339321964970
1.3960000276566,-25.449578284906
1.3980000019073,-25.558952034256
1.3999999761581,-25.667332356258
1.4019999504089,-25.774623048118
1.4040000438690,-25.880752569018
1.4060000181198,-25.985671660477
1.4079999923706,-26.089356170306
1.4099999666214,-26.191808462724
1.4119999408722,-26.293055230446
1.4140000343323,-26.393148406661
1.4160000085831,-26.492165557250
1.4179999828339,-26.590207649899
1.4199999570847,-26.687392771784
1.4220000505447,-26.783860141929
1.4240000247955,-26.879763286966
1.4259999990463,-26.975264936592
1.4279999732971,-27.070536853334
1.4299999475479,-27.165754232537
1.4320000410080,-27.261090363351
1.4340000152588,-27.356713903760
1.4359999895096,-27.452786115486
1.4379999637604,-27.549455516137
1.4400000572205,-27.646852092619
1.4420000314713,-27.745088127296
1.4440000057220,-27.844254066032
1.4459999799728,-27.944412675807
1.4479999542236,-28.045599815973
1.4500000476837,-28.147824093715
1.4520000219345,-28.251061832456
1.4539999961853,-28.355257879764
1.4559999704361,-28.460328377766
1.4579999446869,-28.566155743813
1.4600000381470,-28.672594230487
1.4620000123978,-28.779471441488
1.4639999866486,-28.886586657790
1.4659999608994,-28.993723105145
1.4680000543594,-29.100638593860
1.4700000286102,-29.207082863749
1.4720000028610,-29.312795468005
1.4739999771118,-29.417514583762
1.4759999513626,-29.520980544930
1.4780000448227,-29.622943421472
1.4800000190735,-29.723169308432
1.4819999933243,-29.821449532242
1.4839999675751,-29.917598565613
1.4859999418259,-30.011469433707
1.4880000352859,-30.102950070108
1.4900000095367,-30.191972743848
1.4919999837875,-30.278514530293
1.4939999580383,-30.362596925630
1.4960000514984,-30.444289430491
1.4980000257492,-30.523704700468
1.5000000000000,-30.600999703883
1.5019999742508,-30.676367467756
1.5039999485016,-30.750037947840
1.5060000419617,-30.822267880072
1.5080000162125,-30.893333827783
1.5099999904633,-30.963530253873
1.5119999647141,-31.033155947567
1.5140000581741,-31.102512546884
1.5160000324249,-31.171890713585
1.5180000066757,-31.241569003783
1.5199999809265,-31.311805135814
1.5219999551773,-31.382828719448
1.5240000486374,-31.454835003547
1.5260000228882,-31.527984104780
1.5279999971390,-31.602390849604
1.5299999713898,-31.678128155299
1.5319999456406,-31.755215564945
1.5340000391006,-31.833627541501
1.5360000133514,-31.913282815746
1.5379999876022,-31.994051695466
1.5399999618530,-32.075754088486
1.5420000553131,-32.158161837485
1.5440000295639,-32.241000623685
1.5460000038147,-32.323957022616
1.5479999780655,-32.406684608494
1.5499999523163,-32.488804412768
1.5520000457764,-32.569920549225
1.5540000200272,-32.649626567594
1.5559999942780,-32.727512251199
1.5579999685287,-32.803179724413
1.5599999427795,-32.876246999746
1.5620000362396,-32.946368960378
1.5640000104904,-33.013236537296
1.5659999847412,-33.076596132498
1.5679999589920,-33.136251130182
1.5700000524521,-33.192073000469
1.5720000267029,-33.244003264590
1.5740000009537,-33.292058465159
1.5759999752045,-33.336328809879
1.5779999494553,-33.376977014531
1.5800000429153,-33.414232223547
1.5820000171661,-33.448383015638
1.5839999914169,-33.479771969860
1.5859999656677,-33.508782260190
1.5880000591278,-33.535827316534
1.5900000333786,-33.561343557880
1.5920000076294,-33.585768517522
1.5939999818802,-33.609542915540
1.5959999561310,-33.633086897166
1.5980000495911,-33.656798915197
1.6000000238419,-33.681039384089
1.6019999980927,-33.706128042640
1.6039999723434,-33.732332145872
1.6059999465942,-33.759863770893
1.6080000400543,-33.788874213883
1.6100000143051,-33.819446801508
1.6119999885559,-33.851600718923
1.6139999628067,-33.885286180984
1.6160000562668,-33.920380418537
1.6180000305176,-33.956699410902
1.6200000047684,-33.993991724552
1.6219999790192,-34.031944501912
1.6239999532700,-34.070191173760
1.6260000467300,-34.108318455423
1.6280000209808,-34.145874163286
1.6299999952316,-34.182373733789
1.6319999694824,-34.217320193562
1.6339999437332,-34.250209140586
1.6360000371933,-34.280547578298
1.6380000114441,-34.307863056345
1.6399999856949,-34.331724152244
1.6419999599457,-34.351748518446
1.6440000534058,-34.367619525057
1.6460000276566,-34.379095057102
1.6480000019073,-34.386014950830
1.6499999761581,-34.388312977357
1.6519999504089,-34.386010689312
1.6540000438690,-34.379227137253
1.6560000181198,-34.368165956445
1.6579999923706,-34.353115682703
1.6599999666214,-34.334437513888
1.6619999408722,-34.312556174121
1.6640000343323,-34.287942712459
1.6660000085831,-34.261106621127
1.6679999828339,-34.232576280896
1.6699999570847,-34.202888393312
1.6720000505447,-34.172572571055
1.6740000247955,-34.142138413606
1.6759999990463,-34.112064935765
1.6779999732971,-34.082789800115
1.6799999475479,-34.054700972639
1.6820000410080,-34.028128689841
1.6840000152588,-34.003342085074
1.6859999895096,-33.980539523887
1.6879999637604,-33.959853400350
1.6900000572205,-33.941340228321
1.6920000314713,-33.924985374890
1.6940000057220,-33.910701653925
1.6959999799728,-33.898331502697
1.6979999542236,-33.887649708163
1.7000000476837,-33.878368571588
1.7020000219345,-33.870142103831
1.7039999961853,-33.862574062121
1.7059999704361,-33.855226641066
1.7079999446869,-33.847628478801
1.7100000381470,-33.839285005761
1.7120000123978,-33.829691759870
1.7139999866486,-33.818350541764
1.7159999608994,-33.804774247924
1.7180000543594,-33.788507620982
1.7200000286102,-33.769139057217
1.7220000028610,-33.746310167627
1.7239999771118,-33.719730141804
1.7259999513626,-33.689185967405
1.7280000448227,-33.654543149402
1.7300000190735,-33.615759993569
1.7319999933243,-33.572876878811
1.7339999675751,-33.526027505983
1.7359999418259,-33.475423586474
1.7380000352859,-33.421353511539
1.7400000095367,-33.364175986182
1.7419999837875,-33.304298881194
1.7439999580383,-33.242178399299
1.7460000514984,-33.178297592199
1.7480000257492,-33.113159437518
1.7500000000000,-33.047268298631
1.7519999742508,-32.981122662465
1.7539999485016,-32.915198342951
1.7560000419617,-32.849945702449
1.7580000162125,-32.785774911345
1.7599999904633,-32.723048090900
1.7619999647141,-32.662077698402
1.7640000581741,-32.603119156212
1.7660000324249,-32.546364284373
1.7680000066757,-32.491943217922
1.7699999809265,-32.439923867058
1.7719999551773,-32.390303978112
1.7740000486374,-32.343020598674
1.7760000228882,-32.297945611291
1.7779999971390,-32.254892798659
1.7799999713898,-32.213617941863
1.7819999456406,-32.173825756620
1.7840000391006,-32.135172264473
1.7860000133514,-32.097277170216
1.7879999876022,-32.059725392596
1.7899999618530,-32.022081212491
1.7920000553131,-31.983894042204
1.7940000295639,-31.944710536203
1.7960000038147,-31.904085884934
1.7979999780655,-31.861595783001
1.7999999523163,-31.816844158076
1.8020000457764,-31.769477518133
1.8040000200272,-31.719193061615
1.8059999942780,-31.665750572924
1.8079999685287,-31.608974415045
1.8099999427795,-31.548761755621
1.8120000362396,-31.485087056873
1.8140000104904,-31.417998542033
1.8159999847412,-31.347619955195
1.8179999589920,-31.274144566797
1.8200000524521,-31.197829107471
1.8220000267029,-31.118989653295
1.8240000009537,-31.037987707001
1.8259999752045,-30.955221544008
1.8279999494553,-30.871115965647
1.8300000429153,-30.786110929896
1.8320000171661,-30.700653652637
1.8339999914169,-30.615180337796
1.8359999656677,-30.530117326070
1.8380000591278,-30.445863541571
1.8400000333786,-30.362787178887
1.8420000076294,-30.281218934218
1.8439999818802,-30.201444040746
1.8459999561310,-30.123700289430
1.8480000495911,-30.048172625964
1.8500000238419,-29.974990999037
1.8519999980927,-29.904229897292
1.8539999723434,-29.835906192504
1.8559999465942,-29.769978708220
1.8580000400543,-29.706350283020
1.8600000143051,-29.644870141876
1.8619999885559,-29.585333919778
1.8639999628067,-29.527490490183
1.8660000562668,-29.471043405294
1.8680000305176,-29.415657581062
1.8700000047684,-29.360968081856
1.8719999790192,-29.306579532286
1.8739999532700,-29.252086557425
1.8760000467300,-29.197073790748
1.8780000209808,-29.141126097614
1.8799999952316,-29.083843775082
1.8819999694824,-29.024852844176
1.8839999437332,-28.963808572749
1.8860000371933,-28.900414392549
1.8880000114441,-28.834425546375
1.8899999856949,-28.765663141504
1.8919999599457,-28.694017073010
1.8940000534058,-28.619449495724
1.8960000276566,-28.542004024458
1.8980000019073,-28.461803514906
1.8999999761581,-28.379048535082
1.9019999504089,-28.294018762079
1.9040000438690,-28.207060239405
1.9060000181198,-28.118588558773
1.9079999923706,-28.029076874732
1.9099999666214,-27.939044891840
1.9119999408722,-27.849056514627
1.9140000343323,-27.759705031871
1.9160000085831,-27.671605717532
1.9179999828339,-27.585391814522
1.9199999570847,-27.501700699934
1.9220000505447,-27.421171727600
1.9240000247955,-27.344436763937
1.9259999990463,-27.272120049468
1.9279999732971,-27.204829726019
1.9299999475479,-27.143157118724
1.9320000410080,-27.087675791411
1.9340000152588,-27.038937306738
1.9359999895096,-26.997475060731
1.9379999637604,-26.963802850749
1.9400000572205,-26.938409368485
1.9420000314713,-26.921773431994
1.9440000057220,-26.914351269625
1.9459999799728,-26.916586786547
1.9479999542236,-26.928911621274
1.9500000476837,-26.951746202827
1.9520000219345,-26.985504746292
1.9539999961853,-27.030596520785
1.9559999704361,-27.087428781589
1.9579999446869,-27.156408787207
1.9600000381470,-27.237950143374
1.9620000123978,-27.332473931784
1.9639999866486,-27.440408642647
1.9659999608994,-27.562203123462
1.9680000543594,-27.698320956669
1.9700000286102,-27.849249373234
1.9720000028610,-28.015502035584
1.9739999771118,-28.197627829139
1.9759999513626,-28.396209723116
1.9780000448227,-28.611878135252
1.9800000190735,-28.845309608236
1.9819999933243,-29.097243672353
1.9839999675751,-29.368481948687
1.9859999418259,-29.659905027569
1.9880000352859,-29.972479957467
1.9900000095367,-30.307273295035
1.9919999837875,-30.665464424530
1.9939999580383,-31.048364579459
1.9960000514984,-31.457430527599
1.9980000257492,-31.894287936453
2.0000000000000,-32.360754120372
2.0020000934601,-32.858853529616
2.0039999485016,-33.390847314629
2.0060000419617,-33.959243940422
2.0079998970032,-34.566806486523
2.0099999904633,-35.216531648716
2.0120000839233,-35.911575484650
2.0139999389648,-36.655092287104
2.0160000324249,-37.449894271268
2.0179998874664,-38.297786374402
2.0199999809265,-39.198333649857
2.0220000743866,-40.146601763281
2.0239999294281,-41.129266338904
2.0260000228882,-42.118401665077
2.0280001163483,-43.063269212891
2.0299999713898,-43.884068031283
2.0320000648499,-44.478722543046
2.0339999198914,-44.755684079499
2.0360000133514,-44.682818667752
2.0380001068115,-44.308400879727
2.0399999618530,-43.730174072047
2.0420000553131,-43.047001366270
2.0439999103546,-42.332114397836
2.0460000038147,-41.630411945655
2.0480000972748,-40.965795433567
2.0499999523163,-40.349087690575
2.0520000457764,-39.783714698602
2.0539999008179,-39.269175591792
2.0559999942780,-38.803023027137
2.0580000877380,-38.381952714353
2.0599999427795,-38.002361420985
2.0620000362396,-37.660652088270
2.0639998912811,-37.353356479938
2.0659999847412,-37.077201154503
2.0680000782013,-36.829110417366
2.0699999332428,-36.606206006330
2.0720000267029,-36.405786770080
2.0739998817444,-36.225310547419
2.0759999752045,-36.062376806784
2.0780000686646,-35.914713317956
2.0799999237061,-35.780167496255
2.0820000171661,-35.656698113054
2.0840001106262,-35.542377709890
2.0859999656677,-35.435394600740
2.0880000591278,-35.334061286742
2.0899999141693,-35.236825716363
2.0920000076294,-35.142282806450
2.0940001010895,-35.049182380985
2.0959999561310,-34.956449124799
2.0980000495911,-34.863186164937
2.0999999046326,-34.768684604299
2.1019999980927,-34.672426784319
2.1040000915527,-34.574083030898
2.1059999465942,-34.473504112442
2.1080000400543,-34.370709597563
2.1099998950958,-34.265876110145
2.1119999885559,-34.159308119843
2.1140000820160,-34.051428173763
2.1159999370575,-33.942742616822
2.1180000305176,-33.833825181499
2.1199998855591,-33.725290161149
2.1219999790192,-33.617770986138
2.1240000724792,-33.511905963328
2.1259999275208,-33.408310892471
2.1280000209808,-33.307576206915
2.1300001144409,-33.210248113805
2.1319999694824,-33.116822243499
2.1340000629425,-33.027734494710
2.1359999179840,-32.943358901963
2.1380000114441,-32.864001287663
2.1400001049042,-32.789901310010
2.1419999599457,-32.721228055742
2.1440000534058,-32.658083063712
2.1459999084473,-32.600499312152
2.1480000019073,-32.548446100731
2.1500000953674,-32.501826174416
2.1519999504089,-32.460484186941
2.1540000438690,-32.424204408151
2.1559998989105,-32.392718560073
2.1579999923706,-32.365706427618
2.1600000858307,-32.342802786208
2.1619999408722,-32.323600864724
2.1640000343323,-32.307659208951
2.1659998893738,-32.294506894508
2.1679999828339,-32.283652686926
2.1700000762939,-32.274588159005
2.1719999313354,-32.266801010637
2.1740000247955,-32.259783548415
2.1760001182556,-32.253036983536
2.1779999732971,-32.246087542693
2.1800000667572,-32.238490597646
2.1819999217987,-32.229841449743
2.1840000152588,-32.219786265799
2.1860001087189,-32.208027851117
2.1879999637604,-32.194327146184
2.1900000572205,-32.178515914448
2.1919999122620,-32.160495110833
2.1940000057220,-32.140235060848
2.1960000991821,-32.117776746674
2.1979999542236,-32.093228631402
2.2000000476837,-32.066761110312
2.2019999027252,-32.038600398715
2.2039999961853,-32.009022617789
2.2060000896454,-31.978344246127
2.2079999446869,-31.946912094473
