frequency,refcoef
1.0000000000000,-10.380990654342
1.0019999742508,-10.373417712341
1.0039999485016,-10.369557840907
1.0060000419617,-10.369299241998
1.0080000162125,-10.372528178672
1.0099999904633,-10.379115628574
1.0119999647141,-10.388932880442
1.0140000581741,-10.401837893715
1.0160000324249,-10.417681599136
1.0180000066757,-10.436308862661
1.0199999809265,-10.457555113004
1.0219999551773,-10.481248037767
1.0240000486374,-10.507210006417
1.0260000228882,-10.535252489209
1.0279999971390,-10.565181971819
1.0299999713898,-10.596798966246
1.0319999456406,-10.629895958139
1.0340000391006,-10.664263419127
1.0360000133514,-10.699683691285
1.0379999876022,-10.735939004569
1.0399999618530,-10.772808811142
1.0420000553131,-10.810071197964
1.0440000295639,-10.847504797198
1.0460000038147,-10.884890093277
1.0479999780655,-10.922011995991
1.0499999523163,-10.958661531651
1.0520000457764,-10.994634683540
1.0540000200272,-11.029738067554
1.0559999942780,-11.063788867043
1.0579999685287,-11.096617086449
1.0599999427795,-11.128065726373
1.0620000362396,-11.157995942377
1.0640000104904,-11.186283014660
1.0659999847412,-11.212824143578
1.0679999589920,-11.237532931507
1.0700000524521,-11.260346420545
1.0720000267029,-11.281218916514
1.0740000009537,-11.300129940970
1.0759999752045,-11.317076106161
1.0779999494553,-11.332078680360
1.0800000429153,-11.345176677415
1.0820000171661,-11.356425948616
1.0839999914169,-11.365905477896
1.0859999656677,-11.373707260754
1.0880000591278,-11.379939081217
1.0900000333786,-11.384721133023
1.0920000076294,-11.388189022911
1.0939999818802,-11.390483351749
1.0959999561310,-11.391751873510
1.0980000495911,-11.392152875353
1.1000000238419,-11.391844774719
1.1019999980927,-11.390985640421
1.1039999723434,-11.389737328829
1.1059999465942,-11.388259594450
1.1080000400543,-11.386705241256
1.1100000143051,-11.385226416443
1.1119999885559,-11.383967557385
1.1139999628067,-11.383062052910
1.1160000562668,-11.382641886525
1.1180000305176,-11.382823735559
1.1200000047684,-11.383716320547
1.1219999790192,-11.385420487298
1.1239999532700,-11.388020274569
1.1260000467300,-11.391593525432
1.1280000209808,-11.396203111790
1.1299999952316,-11.401901858298
1.1319999694824,-11.408730574062
1.1339999437332,-11.416717138825
1.1360000371933,-11.425878974286
1.1380000114441,-11.436222246643
1.1399999856949,-11.447742687353
1.1419999599457,-11.460425458058
1.1440000534058,-11.474243385856
1.1460000276566,-11.489164204165
1.1480000019073,-11.505143873037
1.1499999761581,-11.522132114310
1.1519999504089,-11.540070081871
1.1540000438690,-11.558893304080
1.1560000181198,-11.578534041753
1.1579999923706,-11.598916580750
1.1599999666214,-11.619962815177
1.1619999408722,-11.641595455303
1.1640000343323,-11.663730854930
1.1660000085831,-11.686289650143
1.1679999828339,-11.709191420962
1.1699999570847,-11.732356561950
1.1720000505447,-11.755710867999
1.1740000247955,-11.779183836643
1.1759999990463,-11.802708418621
1.1779999732971,-11.826226054028
1.1799999475479,-11.849682983147
1.1820000410080,-11.873035336225
1.1840000152588,-11.896248679215
1.1859999895096,-11.919292422926
1.1879999637604,-11.942152151357
1.1900000572205,-11.964821025693
1.1920000314713,-11.987300674736
1.1940000057220,-12.009606234094
1.1959999799728,-12.031761493667
1.1979999542236,-12.053801168741
1.2000000476837,-12.075769309072
1.2020000219345,-12.097721367980
1.2039999961853,-12.119720198602
1.2059999704361,-12.141837879304
1.2079999446869,-12.164153758885
1.2100000381470,-12.186754763990
1.2120000123978,-12.209734844827
1.2139999866486,-12.233189793943
1.2159999608994,-12.257224170378
1.2180000543594,-12.281942444931
1.2200000286102,-12.307452668345
1.2220000028610,-12.333864327009
1.2239999771118,-12.361286596268
1.2259999513626,-12.389827837499
1.2280000448227,-12.419596318380
1.2300000190735,-12.450694621043
1.2319999933243,-12.483225277612
1.2339999675751,-12.517285347871
1.2359999418259,-12.552965692453
1.2380000352859,-12.590352146569
1.2400000095367,-12.629525305059
1.2419999837875,-12.670557276911
1.2439999580383,-12.713512652681
1.2460000514984,-12.758447746204
1.2480000257492,-12.805411443970
1.2500000000000,-12.854443379210
1.2519999742508,-12.905572310409
1.2539999485016,-12.958818711380
1.2560000419617,-13.014191507319
1.2580000162125,-13.071692215120
1.2599999904633,-13.131309247883
1.2619999647141,-13.193022637871
1.2640000581741,-13.256801581735
1.2660000324249,-13.322602830488
1.2680000066757,-13.390375128656
1.2699999809265,-13.460056496333
1.2719999551773,-13.531574552758
1.2740000486374,-13.604847692045
1.2760000228882,-13.679785052732
1.2779999971390,-13.756286488647
1.2799999713898,-13.834245081000
1.2819999456406,-13.913545058472
1.2840000391006,-13.994062783578
1.2860000133514,-14.075671116061
1.2879999876022,-14.158237730126
1.2899999618530,-14.241624713809
1.2920000553131,-14.325692105146
1.2940000295639,-14.410300335545
1.2960000038147,-14.495307748846
1.2979999780655,-14.580573952048
1.2999999523163,-14.665963921003
1.3020000457764,-14.751342679615
1.3040000200272,-14.836583501595
1.3059999942780,-14.921568410554
1.3079999685287,-15.006184604731
1.3099999427795,-15.090331298165
1.3120000362396,-15.173920841757
1.3140000104904,-15.256874048767
1.3159999847412,-15.339127181110
1.3179999589920,-15.420634405473
1.3200000524521,-15.501358857504
1.3220000267029,-15.581282839691
1.3240000009537,-15.660403962495
1.3259999752045,-15.738736118740
1.3279999494553,-15.816306611949
1.3300000429153,-15.893158501479
1.3320000171661,-15.969352396871
1.3339999914169,-16.044957679215
1.3359999656677,-16.120057604806
1.3380000591278,-16.194746323145
1.3400000333786,-16.269129019824
1.3420000076294,-16.343314770273
1.3439999818802,-16.417424071843
1.3459999561310,-16.491577631063
1.3480000495911,-16.565899137820
1.3500000238419,-16.640515594661
1.3519999980927,-16.715548605330
1.3539999723434,-16.791121544961
1.3559999465942,-16.867347511833
1.3580000400543,-16.944337751278
1.3600000143051,-17.022194787561
1.3619999885559,-17.101006788853
1.3639999628067,-17.180857235312
1.3660000562668,-17.261811063663
1.3680000305176,-17.343922924189
1.3700000047684,-17.427230930822
1.3719999790192,-17.511758176101
1.3739999532700,-17.597507701776
1.3760000467300,-17.684469480761
1.3780000209808,-17.772612729439
1.3799999952316,-17.861885023617
1.3819999694824,-17.952223132176
1.3839999437332,-18.043536256226
1.3860000371933,-18.135719597478
1.3880000114441,-18.228649323387
1.3899999856949,-18.322182662946
1.3919999599457,-18.416161443260
1.3940000534058,-18.510411786093
1.3960000276566,-18.604745492699
1.3980000019073,-18.698961374816
1.3999999761581,-18.792850767620
1.4019999504089,-18.886193518370
1.4040000438690,-18.978767809818
1.4060000181198,-19.070347554292
1.4079999923706,-19.160709145606
1.4099999666214,-19.249633582415
1.4119999408722,-19.336908863868
1.4140000343323,-19.422334916486
1.4160000085831,-19.505727618786
1.4179999828339,-19.586921336177
1.4199999570847,-19.665771042218
1.4220000505447,-19.742159868825
1.4240000247955,-19.815994451787
1.4259999990463,-19.887213965370
1.4279999732971,-19.955786867505
1.4299999475479,-20.021715587623
1.4320000410080,-20.085035435979
1.4340000152588,-20.145811470085
1.4359999895096,-20.204144065098
1.4379999637604,-20.260160241240
1.4400000572205,-20.314017919126
1.4420000314713,-20.365897831198
1.4440000057220,-20.416004776824
1.4459999799728,-20.464562612205
1.4479999542236,-20.511809651060
1.4500000476837,-20.557996941906
1.4520000219345,-20.603381791208
1.4539999961853,-20.648227464199
1.4559999704361,-20.692795499197
1.4579999446869,-20.737345384148
1.4600000381470,-20.782128047010
1.4620000123978,-20.827384254538
1.4639999866486,-20.873343752748
1.4659999608994,-20.920216262307
1.4680000543594,-20.968194338523
1.4700000286102,-21.017450591358
1.4720000028610,-21.068132781438
1.4739999771118,-21.120364934667
1.4759999513626,-21.174243521350
1.4780000448227,-21.229839124958
1.4800000190735,-21.287191189850
1.4819999933243,-21.346310956811
1.4839999675751,-21.407180057477
1.4859999418259,-21.469748298846
1.4880000352859,-21.533934569435
1.4900000095367,-21.599628879473
1.4919999837875,-21.666689761352
1.4939999580383,-21.734946903444
1.4960000514984,-21.804201561773
1.4980000257492,-21.874228673400
1.5000000000000,-21.944779457322
1.5019999742508,-22.015582452191
1.5039999485016,-22.086345462977
1.5060000419617,-22.156763820828
1.5080000162125,-22.226517228819
1.5099999904633,-22.295280608143
1.5119999647141,-22.362725686076
1.5140000581741,-22.428527228575
1.5160000324249,-22.492366478287
1.5180000066757,-22.553943394318
1.5199999809265,-22.612972573901
1.5219999551773,-22.669197020707
1.5240000486374,-22.722392450623
1.5260000228882,-22.772368006547
1.5279999971390,-22.818976892617
1.5299999713898,-22.862112001641
1.5319999456406,-22.901718262058
1.5340000391006,-22.937787285720
1.5360000133514,-22.970361251770
1.5379999876022,-22.999529763414
1.5399999618530,-23.025431150339
1.5420000553131,-23.048246881979
1.5440000295639,-23.068203442962
1.5460000038147,-23.085559058110
1.5479999780655,-23.100606109711
1.5499999523163,-23.113664422272
1.5520000457764,-23.125070027353
1.5540000200272,-23.135175896735
1.5559999942780,-23.144343915203
1.5579999685287,-23.152936144619
1.5599999427795,-23.161312620303
1.5620000362396,-23.169823508989
1.5640000104904,-23.178807492606
1.5659999847412,-23.188585271153
1.5679999589920,-23.199453537795
1.5700000524521,-23.211688602174
1.5720000267029,-23.225533151622
1.5740000009537,-23.241203818727
1.5759999752045,-23.258881824464
1.5779999494553,-23.278713534294
1.5800000429153,-23.300812027088
1.5820000171661,-23.325248051718
1.5839999914169,-23.352058062901
1.5859999656677,-23.381237277310
1.5880000591278,-23.412741344974
1.5900000333786,-23.446486459190
1.5920000076294,-23.482348645706
1.5939999818802,-23.520164916885
1.5959999561310,-23.559733553612
1.5980000495911,-23.600815347880
1.6000000238419,-23.643135800035
1.6019999980927,-23.686386177990
1.6039999723434,-23.730228506975
1.6059999465942,-23.774296419452
1.6080000400543,-23.818200288013
1.6100000143051,-23.861532315392
1.6119999885559,-23.903874792313
1.6139999628067,-23.944798291884
1.6160000562668,-23.983877889593
1.6180000305176,-24.020697636773
1.6200000047684,-24.054854438603
1.6219999790192,-24.085969565238
1.6239999532700,-24.113699161898
1.6260000467300,-24.137737287348
1.6280000209808,-24.157825221840
1.6299999952316,-24.173757066233
1.6319999694824,-24.185386840778
1.6339999437332,-24.192631097890
1.6360000371933,-24.195471430599
1.6380000114441,-24.193954333071
1.6399999856949,-24.188192395417
1.6419999599457,-24.178360486075
1.6440000534058,-24.164693304524
1.6460000276566,-24.147478296885
1.6480000019073,-24.127049725903
1.6499999761581,-24.103781360666
1.6519999504089,-24.078079954385
1.6540000438690,-24.050378062438
1.6560000181198,-24.021119462060
1.6579999923706,-23.990762625267
1.6599999666214,-23.959760369009
1.6619999408722,-23.928564144237
1.6640000343323,-23.897610092848
1.6660000085831,-23.867315467805
1.6679999828339,-23.838076242482
1.6699999570847,-23.810261298745
1.6720000505447,-23.784203437486
1.6740000247955,-23.760205958148
1.6759999990463,-23.738535725590
1.6779999732971,-23.719417370414
1.6799999475479,-23.703034983387
1.6820000410080,-23.689535883765
1.6840000152588,-23.679019202031
1.6859999895096,-23.671545080138
1.6879999637604,-23.667126425827
1.6900000572205,-23.665733604150
1.6920000314713,-23.667295795530
1.6940000057220,-23.671691035987
1.6959999799728,-23.678761605043
1.6979999542236,-23.688301585642
1.7000000476837,-23.700066869662
1.7020000219345,-23.713769464784
1.7039999961853,-23.729085911946
1.7059999704361,-23.745655032278
1.7079999446869,-23.763082627792
1.7100000381470,-23.780946165112
1.7120000123978,-23.798798605682
1.7139999866486,-23.816175115561
1.7159999608994,-23.832596104209
1.7180000543594,-23.847576578068
1.7200000286102,-23.860637392691
1.7220000028610,-23.871306243426
1.7239999771118,-23.879132154881
1.7259999513626,-23.883693618473
1.7280000448227,-23.884607553479
1.7300000190735,-23.881535050225
1.7319999933243,-23.874196912678
1.7339999675751,-23.862371737819
1.7359999418259,-23.845904991883
1.7380000352859,-23.824719548040
1.7400000095367,-23.798806699381
1.7419999837875,-23.768234358784
1.7439999580383,-23.733145403497
1.7460000514984,-23.693748850029
1.7480000257492,-23.650320209200
1.7500000000000,-23.603195280294
1.7519999742508,-23.552755611513
1.7539999485016,-23.499429844431
1.7560000419617,-23.443678445005
1.7580000162125,-23.385984830100
1.7599999904633,-23.326847517571
1.7619999647141,-23.266775593000
1.7640000581741,-23.206271162342
1.7660000324249,-23.145832848752
1.7680000066757,-23.085940532889
1.7699999809265,-23.027052399816
1.7719999551773,-22.969602958891
1.7740000486374,-22.913995576086
1.7760000228882,-22.860598817091
1.7779999971390,-22.809746123740
1.7799999713898,-22.761731117656
1.7819999456406,-22.716806395386
1.7840000391006,-22.675184295443
1.7860000133514,-22.637032585997
1.7879999876022,-22.602475651780
1.7899999618530,-22.571593296776
1.7920000553131,-22.544419039389
1.7940000295639,-22.520942556379
1.7960000038147,-22.501105311854
1.7979999780655,-22.484804518919
1.7999999523163,-22.471890786310
1.8020000457764,-22.462166250754
1.8040000200272,-22.455389244754
1.8059999942780,-22.451272472261
1.8079999685287,-22.449482153094
1.8099999427795,-22.449644666157
1.8120000362396,-22.451341091382
1.8140000104904,-22.454119108550
1.8159999847412,-22.457486074161
1.8179999589920,-22.460925070485
1.8200000524521,-22.463893220020
1.8220000267029,-22.465828848488
1.8240000009537,-22.466161576825
1.8259999752045,-22.464321406178
1.8279999494553,-22.459748529714
1.8300000429153,-22.451902640199
1.8320000171661,-22.440274521021
1.8339999914169,-22.424401664365
1.8359999656677,-22.403873133503
1.8380000591278,-22.378344263483
1.8400000333786,-22.347545309486
1.8420000076294,-22.311290859717
1.8439999818802,-22.269482328933
1.8459999561310,-22.222112809322
1.8480000495911,-22.169272392568
1.8500000238419,-22.111141679358
1.8519999980927,-22.047991140618
1.8539999723434,-21.980172743781
1.8559999465942,-21.908118766791
1.8580000400543,-21.832321841355
1.8600000143051,-21.753336716832
1.8619999885559,-21.671759566937
1.8639999628067,-21.588223945225
1.8660000562668,-21.503388117287
1.8680000305176,-21.417923362452
1.8700000047684,-21.332509269919
1.8719999790192,-21.247819095610
1.8739999532700,-21.164520283654
1.8760000467300,-21.083265857717
1.8780000209808,-21.004687762153
1.8799999952316,-20.929397634073
1.8819999694824,-20.857981414900
1.8839999437332,-20.790999071684
1.8860000371933,-20.728986533779
1.8880000114441,-20.672451821698
1.8899999856949,-20.621878112896
1.8919999599457,-20.577724569715
1.8940000534058,-20.540427889517
1.8960000276566,-20.510405125044
1.8980000019073,-20.488053752883
1.8999999761581,-20.473754135377
1.9019999504089,-20.467873934264
1.9040000438690,-20.470768523123
1.9060000181198,-20.482783681592
1.9079999923706,-20.504257058737
1.9099999666214,-20.535522400641
1.9119999408722,-20.576910487051
1.9140000343323,-20.628749851508
1.9160000085831,-20.691372797449
1.9179999828339,-20.765111571081
1.9199999570847,-20.850304122623
1.9220000505447,-20.947296613667
1.9240000247955,-21.056440197567
1.9259999990463,-21.178096844048
1.9279999732971,-21.312634700019
1.9299999475479,-21.460432283746
1.9320000410080,-21.621877946254
1.9340000152588,-21.797363640017
1.9359999895096,-21.987287751144
1.9379999637604,-22.192044699943
1.9400000572205,-22.412023750798
1.9420000314713,-22.647594032697
1.9440000057220,-22.899089871578
1.9459999799728,-23.166796536547
1.9479999542236,-23.450914097454
1.9500000476837,-23.751525753672
1.9520000219345,-24.068543147446
1.9539999961853,-24.401638003462
1.9559999704361,-24.750150369988
1.9579999446869,-25.112967889171
1.9600000381470,-25.488373235440
1.9620000123978,-25.873846963220
1.9639999866486,-26.265839211078
1.9659999608994,-26.659502802751
1.9680000543594,-27.048425449830
1.9700000286102,-27.424407895754
1.9720000028610,-27.777381640918
1.9739999771118,-28.095580580313
1.9759999513626,-28.366134296189
1.9780000448227,-28.576137681922
1.9800000190735,-28.714189278078
1.9819999933243,-28.772104148598
1.9839999675751,-28.746352747913
1.9859999418259,-28.638732548982
1.9880000352859,-28.456021102730
1.9900000095367,-28.208744766427
1.9919999837875,-27.909491909430
1.9939999580383,-27.571283086910
1.9960000514984,-27.206325413862
1.9980000257492,-26.825276241597
2.0000000000000,-26.436940262166
2.0020000934601,-26.048289293710
2.0039999485016,-25.664647856132
2.0060000419617,-25.289952799194
2.0079998970032,-24.927025160685
2.0099999904633,-24.577811930657
2.0120000839233,-24.243595075596
2.0139999389648,-23.925156013260
2.0160000324249,-23.622907704060
2.0179998874664,-23.336997292342
2.0199999809265,-23.067374749550
2.0220000743866,-22.813859904308
2.0239999294281,-22.576175576212
2.0260000228882,-22.353982284079
2.0280001163483,-22.146900208319
2.0299999713898,-21.954526396310
2.0320000648499,-21.776443785566
2.0339999198914,-21.612230321539
2.0360000133514,-21.461464625744
2.0380001068115,-21.323729351371
2.0399999618530,-21.198611865936
2.0420000553131,-21.085707508256
2.0439999103546,-20.984615798874
2.0460000038147,-20.894945595873
2.0480000972748,-20.816306842117
2.0499999523163,-20.748316036869
2.0520000457764,-20.690589878142
2.0539999008179,-20.642748728662
2.0559999942780,-20.604405736468
2.0580000877380,-20.575176749028
2.0599999427795,-20.554668332363
2.0620000362396,-20.542480957832
2.0639998912811,-20.538203782745
2.0659999847412,-20.541417617838
2.0680000782013,-20.551686459892
2.0699999332428,-20.568562431075
2.0720000267029,-20.591579038684
2.0739998817444,-20.620251196369
2.0759999752045,-20.654077283787
2.0780000686646,-20.692535594864
2.0799999237061,-20.735082525022
2.0820000171661,-20.781158941828
2.0840001106262,-20.830187935260
2.0859999656677,-20.881573726864
2.0880000591278,-20.934710071492
2.0899999141693,-20.988982421943
2.0920000076294,-21.043768346289
2.0940001010895,-21.098449233712
2.0959999561310,-21.152413710447
2.0980000495911,-21.205061799684
2.0999999046326,-21.255819782936
2.1019999980927,-21.304142690959
2.1040000915527,-21.349523984969
2.1059999465942,-21.391506655068
2.1080000400543,-21.429687439684
2.1099998950958,-21.463726874980
2.1119999885559,-21.493354017452
2.1140000820160,-21.518373810806
2.1159999370575,-21.538666578725
2.1180000305176,-21.554192942872
2.1199998855591,-21.564989517528
2.1219999790192,-21.571171109727
2.1240000724792,-21.572924556624
2.1259999275208,-21.570500109229
2.1280000209808,-21.564212125371
2.1300001144409,-21.554421680369
2.1319999694824,-21.541535338198
2.1340000629425,-21.525991137946
2.1359999179840,-21.508254493208
2.1380000114441,-21.488802472823
2.1400001049042,-21.468122002766
2.1419999599457,-21.446696980762
2.1440000534058,-21.425006229245
2.1459999084473,-21.403512254716
2.1480000019073,-21.382658117259
2.1500000953674,-21.362866104202
2.1519999504089,-21.344526472485
2.1540000438690,-21.328004099256
2.1559998989105,-21.313628376484
2.1579999923706,-21.301695098418
2.1600000858307,-21.292464819941
2.1619999408722,-21.286163904545
2.1640000343323,-21.282982423972
2.1659998893738,-21.283072408695
2.1679999828339,-21.286553677826
2.1700000762939,-21.293507084465
2.1719999313354,-21.303977990990
2.1740000247955,-21.317983180124
2.1760001182556,-21.335498171029
2.1779999732971,-21.356470820815
2.1800000667572,-21.380813265104
2.1819999217987,-21.408408885116
2.1840000152588,-21.439107635144
2.1860001087189,-21.472732459394
2.1879999637604,-21.509076886547
2.1900000572205,-21.547907832632
2.1919999122620,-21.588966904491
2.1940000057220,-21.631972563503
2.1960000991821,-21.676621704249
2.1979999542236,-21.722594472547
2.2000000476837,-21.769554134317
2.2019999027252,-21.817152333019
2.2039999961853,-21.865033604615
2.2060000896454,-21.912836246733
2.2079999446869,-21.960200358653
