frequency,refcoef
1.0000000000000,-23.017054651830
1.0019999742508,-23.058500186973
1.0039999485016,-23.102712100585
1.0060000419617,-23.149606831060
1.0080000162125,-23.199097206557
1.0099999904633,-23.251092551032
1.0119999647141,-23.305499054370
1.0140000581741,-23.362214036185
1.0160000324249,-23.421136149298
1.0180000066757,-23.482154560152
1.0199999809265,-23.545156437439
1.0219999551773,-23.610023311501
1.0240000486374,-23.676632731855
1.0260000228882,-23.744856066574
1.0279999971390,-23.814559119679
1.0299999713898,-23.885607848191
1.0319999456406,-23.957857502398
1.0340000391006,-24.031161952002
1.0360000133514,-24.105372293327
1.0379999876022,-24.180333955060
1.0399999618530,-24.255888699879
1.0420000553131,-24.331877744613
1.0440000295639,-24.408136351929
1.0460000038147,-24.484503417064
1.0479999780655,-24.560811274888
1.0499999523163,-24.636895750226
1.0520000457764,-24.712591154743
1.0540000200272,-24.787736230967
1.0559999942780,-24.862169608356
1.0579999685287,-24.935734694087
1.0599999427795,-25.008279345497
1.0620000362396,-25.079656998129
1.0640000104904,-25.149729221443
1.0659999847412,-25.218364245931
1.0679999589920,-25.285438910382
1.0700000524521,-25.350842636519
1.0720000267029,-25.414474115707
1.0740000009537,-25.476243843471
1.0759999752045,-25.536077878645
1.0779999494553,-25.593911891715
1.0800000429153,-25.649697968244
1.0820000171661,-25.703402353957
1.0839999914169,-25.755007929647
1.0859999656677,-25.804509856371
1.0880000591278,-25.851918158188
1.0900000333786,-25.897259889372
1.0920000076294,-25.940575295881
1.0939999818802,-25.981918074872
1.0959999561310,-26.021354966621
1.0980000495911,-26.058966612369
1.1000000238419,-26.094844057227
1.1019999980927,-26.129088104457
1.1039999723434,-26.161811768464
1.1059999465942,-26.193133315820
1.1080000400543,-26.223180293459
1.1100000143051,-26.252086261226
1.1119999885559,-26.279990263345
1.1139999628067,-26.307032639160
1.1160000562668,-26.333360321988
1.1180000305176,-26.359117512706
1.1200000047684,-26.384454694972
1.1219999790192,-26.409516664583
1.1239999532700,-26.434448980171
1.1260000467300,-26.459397259736
1.1280000209808,-26.484503391964
1.1299999952316,-26.509904119210
1.1319999694824,-26.535734819568
1.1339999437332,-26.562124611960
1.1360000371933,-26.589200235097
1.1380000114441,-26.617079484834
1.1399999856949,-26.645878819701
1.1419999599457,-26.675707354000
1.1440000534058,-26.706668499638
1.1460000276566,-26.738858863771
1.1480000019073,-26.772368787709
1.1499999761581,-26.807285614461
1.1519999504089,-26.843687671370
1.1540000438690,-26.881646738807
1.1560000181198,-26.921232045602
1.1579999923706,-26.962503898137
1.1599999666214,-27.005518401574
1.1619999408722,-27.050324597696
1.1640000343323,-27.096966378553
1.1660000085831,-27.145483164343
1.1679999828339,-27.195907265248
1.1699999570847,-27.248269203515
1.1720000505447,-27.302590971747
1.1740000247955,-27.358891443565
1.1759999990463,-27.417184779336
1.1779999732971,-27.477480429156
1.1799999475479,-27.539783375442
1.1820000410080,-27.604095338010
1.1840000152588,-27.670413363409
1.1859999895096,-27.738730572840
1.1879999637604,-27.809037018003
1.1900000572205,-27.881321286427
1.1920000314713,-27.955563390390
1.1940000057220,-28.031746619082
1.1959999799728,-28.109846529082
1.1979999542236,-28.189840029064
1.2000000476837,-28.271697748441
1.2020000219345,-28.355391917572
1.2039999961853,-28.440889805928
1.2059999704361,-28.528157443647
1.2079999446869,-28.617159830861
1.2100000381470,-28.707860635722
1.2120000123978,-28.800222241534
1.2139999866486,-28.894205271757
1.2159999608994,-28.989771212662
1.2180000543594,-29.086878724981
1.2200000286102,-29.185488654342
1.2220000028610,-29.285559610292
1.2239999771118,-29.387050753736
1.2259999513626,-29.489923539919
1.2280000448227,-29.594138030138
1.2300000190735,-29.699655620695
1.2319999933243,-29.806439426195
1.2339999675751,-29.914450863038
1.2359999418259,-30.023657363405
1.2380000352859,-30.134024331479
1.2400000095367,-30.245521999622
1.2419999837875,-30.358118354040
1.2439999580383,-30.471788769851
1.2460000514984,-30.586507238451
1.2480000257492,-30.702250193170
1.2500000000000,-30.818998562178
1.2519999742508,-30.936734340152
1.2539999485016,-31.055443303797
1.2560000419617,-31.175112357737
1.2580000162125,-31.295732681008
1.2599999904633,-31.417295715813
1.2619999647141,-31.539799563252
1.2640000581741,-31.663239927439
1.2660000324249,-31.787618627932
1.2680000066757,-31.912938899096
1.2699999809265,-32.039203943677
1.2719999551773,-32.166421816807
1.2740000486374,-32.294600578746
1.2760000228882,-32.423749908703
1.2779999971390,-32.553881077292
1.2799999713898,-32.685004685478
1.2819999456406,-32.817134499600
1.2840000391006,-32.950281903702
1.2860000133514,-33.084459140845
1.2879999876022,-33.219678146384
1.2899999618530,-33.355949532910
1.2920000553131,-33.493280609587
1.2940000295639,-33.631679483086
1.2960000038147,-33.771151391531
1.2979999780655,-33.911696453486
1.2999999523163,-34.053314009178
1.3020000457764,-34.195997545180
1.3040000200272,-34.339737720380
1.3059999942780,-34.484520585472
1.3079999685287,-34.630323738750
1.3099999427795,-34.777122643838
1.3120000362396,-34.924886284183
1.3140000104904,-35.073574324853
1.3159999847412,-35.223141701202
1.3179999589920,-35.373534720526
1.3200000524521,-35.524693361235
1.3220000267029,-35.676546647473
1.3240000009537,-35.829018078225
1.3259999752045,-35.982023906604
1.3279999494553,-36.135464521234
1.3300000429153,-36.289241554986
1.3320000171661,-36.443239718157
1.3339999914169,-36.597341142707
1.3359999656677,-36.751415573020
1.3380000591278,-36.905328997797
1.3400000333786,-37.058936642966
1.3420000076294,-37.212089652927
1.3439999818802,-37.364631986214
1.3459999561310,-37.516404069163
1.3480000495911,-37.667242625353
1.3500000238419,-37.816982534290
1.3519999980927,-37.965455960955
1.3539999723434,-38.112496637712
1.3559999465942,-38.257942526547
1.3580000400543,-38.401633741643
1.3600000143051,-38.543416107420
1.3619999885559,-38.683145691295
1.3639999628067,-38.820684968384
1.3660000562668,-38.955911584938
1.3680000305176,-39.088714796998
1.3700000047684,-39.218998251378
1.3719999790192,-39.346684629807
1.3739999532700,-39.471713042700
1.3760000467300,-39.594042479128
1.3780000209808,-39.713653159681
1.3799999952316,-39.830543210621
1.3819999694824,-39.944734125958
1.3839999437332,-40.056270198294
1.3860000371933,-40.165211459123
1.3880000114441,-40.271643183051
1.3899999856949,-40.375668007640
1.3919999599457,-40.477406642639
1.3940000534058,-40.576996319096
1.3960000276566,-40.674589360401
1.3980000019073,-40.770351420667
1.3999999761581,-40.864461483419
1.4019999504089,-40.957104002010
1.4040000438690,-41.048473219851
1.4060000181198,-41.138767277896
1.4079999923706,-41.228187145274
1.4099999666214,-41.316935855296
1.4119999408722,-41.405212197281
1.4140000343323,-41.493214636033
1.4160000085831,-41.581135168398
1.4179999828339,-41.669159516956
1.4199999570847,-41.757462809062
1.4220000505447,-41.846214052352
1.4240000247955,-41.935567045939
1.4259999990463,-42.025665979717
1.4279999732971,-42.116639458397
1.4299999475479,-42.208602401559
1.4320000410080,-42.301653912678
1.4340000152588,-42.395876851476
1.4359999895096,-42.491336771475
1.4379999637604,-42.588082690365
1.4400000572205,-42.686144121001
1.4420000314713,-42.785532725776
1.4440000057220,-42.886242109377
1.4459999799728,-42.988246042310
1.4479999542236,-43.091500277487
1.4500000476837,-43.195939546624
1.4520000219345,-43.301481354209
1.4539999961853,-43.408025730023
1.4559999704361,-43.515451471619
1.4579999446869,-43.623621924549
1.4600000381470,-43.732383516743
1.4620000123978,-43.841564899092
1.4639999866486,-43.950983641862
1.4659999608994,-44.060440718840
1.4680000543594,-44.169727376047
1.4700000286102,-44.278624239208
1.4720000028610,-44.386905340255
1.4739999771118,-44.494339511549
1.4759999513626,-44.600693036716
1.4780000448227,-44.705732388574
1.4800000190735,-44.809229729674
1.4819999933243,-44.910960165334
1.4839999675751,-45.010712981044
1.4859999418259,-45.108287962003
1.4880000352859,-45.203505385156
1.4900000095367,-45.296201581179
1.4919999837875,-45.386237270662
1.4939999580383,-45.473498772382
1.4960000514984,-45.557901571751
1.4980000257492,-45.639387615583
1.5000000000000,-45.717933549126
1.5019999742508,-45.793545290727
1.5039999485016,-45.866263224960
1.5060000419617,-45.936156302956
1.5080000162125,-46.003329760136
1.5099999904633,-46.067912321701
1.5119999647141,-46.130065080682
1.5140000581741,-46.189971531221
1.5160000324249,-46.247840191653
1.5180000066757,-46.303895549737
1.5199999809265,-46.358382985778
1.5219999551773,-46.411556733313
1.5240000486374,-46.463683817518
1.5260000228882,-46.515035108532
1.5279999971390,-46.565883110158
1.5299999713898,-46.616501810507
1.5319999456406,-46.667161029283
1.5340000391006,-46.718123409497
1.5360000133514,-46.769641784263
1.5379999876022,-46.821956880336
1.5399999618530,-46.875295766063
1.5420000553131,-46.929870273842
1.5440000295639,-46.985870355304
1.5460000038147,-47.043469869209
1.5479999780655,-47.102818400139
1.5499999523163,-47.164044098475
1.5520000457764,-47.227251119943
1.5540000200272,-47.292517030656
1.5559999942780,-47.359893977907
1.5579999685287,-47.429405599085
1.5599999427795,-47.501049634343
1.5620000362396,-47.574793709940
1.5640000104904,-47.650574875662
1.5659999847412,-47.728301707209
1.5679999589920,-47.807851970797
1.5700000524521,-47.889070800251
1.5720000267029,-47.971775613899
1.5740000009537,-48.055751111730
1.5759999752045,-48.140750261602
1.5779999494553,-48.226500499494
1.5800000429153,-48.312696926833
1.5820000171661,-48.399010664560
1.5839999914169,-48.485087425389
1.5859999656677,-48.570551338296
1.5880000591278,-48.655008564436
1.5900000333786,-48.738048946294
1.5920000076294,-48.819255786799
1.5939999818802,-48.898206702970
1.5959999561310,-48.974480498509
1.5980000495911,-49.047663867605
1.6000000238419,-49.117359360596
1.6019999980927,-49.183189915709
1.6039999723434,-49.244810828332
1.6059999465942,-49.301910144649
1.6080000400543,-49.354219942855
1.6100000143051,-49.401520734918
1.6119999885559,-49.443646322648
1.6139999628067,-49.480489052731
1.6160000562668,-49.511999574372
1.6180000305176,-49.538192153705
1.6200000047684,-49.559141136201
1.6219999790192,-49.574981128128
1.6239999532700,-49.585902247120
1.6260000467300,-49.592150423121
1.6280000209808,-49.594016447196
1.6299999952316,-49.591832934992
1.6319999694824,-49.585968366456
1.6339999437332,-49.576817813909
1.6360000371933,-49.564797151269
1.6380000114441,-49.550334305314
1.6399999856949,-49.533866654920
1.6419999599457,-49.515829627037
1.6440000534058,-49.496652366399
1.6460000276566,-49.476753918411
1.6480000019073,-49.456535704753
1.6499999761581,-49.436381487757
1.6519999504089,-49.416649885733
1.6540000438690,-49.397671582418
1.6560000181198,-49.379752957324
1.6579999923706,-49.363166801851
1.6599999666214,-49.348154177040
1.6619999408722,-49.334923140653
1.6640000343323,-49.323651596668
1.6660000085831,-49.314478412927
1.6679999828339,-49.307511823322
1.6699999570847,-49.302824073200
1.6720000505447,-49.300454380922
1.6740000247955,-49.300408251185
1.6759999990463,-49.302654922938
1.6779999732971,-49.307134542004
1.6799999475479,-49.313751760976
1.6820000410080,-49.322379218387
1.6840000152588,-49.332861828523
1.6859999895096,-49.345009021045
1.6879999637604,-49.358606796809
1.6900000572205,-49.373409737332
1.6920000314713,-49.389148686471
1.6940000057220,-49.405531920345
1.6959999799728,-49.422243855646
1.6979999542236,-49.438952838716
1.7000000476837,-49.455313078093
1.7020000219345,-49.470966106175
1.7039999961853,-49.485548136341
1.7059999704361,-49.498693383991
1.7079999446869,-49.510038013038
1.7100000381470,-49.519227230239
1.7120000123978,-49.525920557095
1.7139999866486,-49.529798112118
1.7159999608994,-49.530563135916
1.7180000543594,-49.527950548779
1.7200000286102,-49.521732741436
1.7220000028610,-49.511719988570
1.7239999771118,-49.497769087602
1.7259999513626,-49.479785008122
1.7280000448227,-49.457718798901
1.7300000190735,-49.431576972431
1.7319999933243,-49.401413575071
1.7339999675751,-49.367334116204
1.7359999418259,-49.329492993199
1.7380000352859,-49.288085977249
1.7400000095367,-49.243356069002
1.7419999837875,-49.195579623383
1.7439999580383,-49.145064765272
1.7460000514984,-49.092149202968
1.7480000257492,-49.037190990831
1.7500000000000,-48.980564306899
1.7519999742508,-48.922654576755
1.7539999485016,-48.863854259138
1.7560000419617,-48.804556464431
1.7580000162125,-48.745151344781
1.7599999904633,-48.686021981042
1.7619999647141,-48.627542876978
1.7640000581741,-48.570074145679
1.7660000324249,-48.513962213177
1.7680000066757,-48.459535233382
1.7699999809265,-48.407102474496
1.7719999551773,-48.356956031050
1.7740000486374,-48.309363980218
1.7760000228882,-48.264573637227
1.7779999971390,-48.222812757929
1.7799999713898,-48.184286091877
1.7819999456406,-48.149174961821
1.7840000391006,-48.117643196718
1.7860000133514,-48.089827672855
1.7879999876022,-48.065848134492
1.7899999618530,-48.045800030337
1.7920000553131,-48.029760535688
1.7940000295639,-48.017783023224
1.7960000038147,-48.009902871901
1.7979999780655,-48.006132862500
1.7999999523163,-48.006465223818
1.8020000457764,-48.010872517696
1.8040000200272,-48.019303932288
1.8059999942780,-48.031691916519
1.8079999685287,-48.047943763942
1.8099999427795,-48.067946013737
1.8120000362396,-48.091565640123
1.8140000104904,-48.118645159981
1.8159999847412,-48.149005497171
1.8179999589920,-48.182447547100
1.8200000524521,-48.218745095152
1.8220000267029,-48.257653621052
1.8240000009537,-48.298905901706
1.8259999752045,-48.342211097539
1.8279999494553,-48.387258103224
1.8300000429153,-48.433716163349
1.8320000171661,-48.481237346986
1.8339999914169,-48.529453319427
1.8359999656677,-48.577983462876
1.8380000591278,-48.626435007621
1.8400000333786,-48.674406749729
1.8420000076294,-48.721492202519
1.8439999818802,-48.767283329984
1.8459999561310,-48.811377555770
1.8480000495911,-48.853381588724
1.8500000238419,-48.892915160229
1.8519999980927,-48.929620930667
1.8539999723434,-48.963165862996
1.8559999465942,-48.993250013470
1.8580000400543,-49.019609175548
1.8600000143051,-49.042022988143
1.8619999885559,-49.060315901008
1.8639999628067,-49.074364252836
1.8660000562668,-49.084096687328
1.8680000305176,-49.089494307294
1.8700000047684,-49.090596068704
1.8719999790192,-49.087491634667
1.8739999532700,-49.080326099473
1.8760000467300,-49.069292551526
1.8780000209808,-49.054630218327
1.8799999952316,-49.036620746833
1.8819999694824,-49.015580166106
1.8839999437332,-48.991857588467
1.8860000371933,-48.965828048073
1.8880000114441,-48.937883977621
1.8899999856949,-48.908433167654
1.8919999599457,-48.877893057057
1.8940000534058,-48.846682394314
1.8960000276566,-48.815219561499
1.8980000019073,-48.783918471109
1.8999999761581,-48.753183509920
1.9019999504089,-48.723405944387
1.9040000438690,-48.694963600776
1.9060000181198,-48.668216467044
1.9079999923706,-48.643506804333
1.9099999666214,-48.621155871347
1.9119999408722,-48.601463931590
1.9140000343323,-48.584710014421
1.9160000085831,-48.571150504626
1.9179999828339,-48.561018853596
1.9199999570847,-48.554527524050
1.9220000505447,-48.551864572999
1.9240000247955,-48.553197535523
1.9259999990463,-48.558669951618
1.9279999732971,-48.568403704902
1.9299999475479,-48.582497584711
1.9320000410080,-48.601029123770
1.9340000152588,-48.624053953890
1.9359999895096,-48.651604059825
1.9379999637604,-48.683689312842
1.9400000572205,-48.720295617558
1.9420000314713,-48.761387012848
1.9440000057220,-48.806903251472
1.9459999799728,-48.856758280127
1.9479999542236,-48.910840627660
1.9500000476837,-48.969013964982
1.9520000219345,-49.031113912439
1.9539999961853,-49.096949139054
1.9559999704361,-49.166297665791
1.9579999446869,-49.238909876012
1.9600000381470,-49.314505160388
1.9620000123978,-49.392771743720
1.9639999866486,-49.473367644921
1.9659999608994,-49.555919401668
1.9680000543594,-49.640024121729
1.9700000286102,-49.725248667760
1.9720000028610,-49.811133268323
1.9739999771118,-49.897192142123
1.9759999513626,-49.982917619383
1.9780000448227,-50.067785038423
1.9800000190735,-50.151256112578
1.9819999933243,-50.232788274449
1.9839999675751,-50.311833280769
1.9859999418259,-50.387857506608
1.9880000352859,-50.460340347790
1.9900000095367,-50.528787365441
1.9919999837875,-50.592739781256
1.9939999580383,-50.651782207460
1.9960000514984,-50.705551900801
1.9980000257492,-50.753748499825
2.0000000000000,-50.796142019238
2.0020000934601,-50.832572323448
2.0039999485016,-50.862962113031
2.0060000419617,-50.887311681787
2.0079998970032,-50.905703335655
2.0099999904633,-50.918298527689
2.0120000839233,-50.925332397425
2.0139999389648,-50.927109194043
2.0160000324249,-50.923995765485
2.0179998874664,-50.916414297090
2.0199999809265,-50.904828961761
2.0220000743866,-50.889739492821
2.0239999294281,-50.871674773608
2.0260000228882,-50.851175583130
2.0280001163483,-50.828793209214
2.0299999713898,-50.805071906181
2.0320000648499,-50.780555153433
2.0339999198914,-50.755764817446
2.0360000133514,-50.731203698791
2.0380001068115,-50.707348276394
2.0399999618530,-50.684645612941
2.0420000553131,-50.663506942112
2.0439999103546,-50.644309190761
2.0460000038147,-50.627389885685
2.0480000972748,-50.613046961378
2.0499999523163,-50.601536292641
2.0520000457764,-50.593071064088
2.0539999008179,-50.587824209369
2.0559999942780,-50.585918428484
2.0580000877380,-50.587436295328
2.0599999427795,-50.592411902217
2.0620000362396,-50.600834312122
2.0639998912811,-50.612643154364
2.0659999847412,-50.627728930311
2.0680000782013,-50.645932844534
2.0699999332428,-50.667045593460
2.0720000267029,-50.690803112331
2.0739998817444,-50.716890337004
2.0759999752045,-50.744937331608
2.0780000686646,-50.774517165270
2.0799999237061,-50.805154281401
2.0820000171661,-50.836314404217
2.0840001106262,-50.867413538205
2.0859999656677,-50.897822079205
2.0880000591278,-50.926861929094
2.0899999141693,-50.953818832967
2.0920000076294,-50.977949298752
2.0940001010895,-50.998487987951
2.0959999561310,-51.014660938813
2.0980000495911,-51.025697386574
2.0999999046326,-51.030846351910
2.1019999980927,-51.029390855685
2.1040000915527,-51.020665988770
2.1059999465942,-51.004074860150
2.1080000400543,-50.979105101209
2.1099998950958,-50.945342722071
2.1119999885559,-50.902484933275
2.1140000820160,-50.850348465759
2.1159999370575,-50.788875887250
2.1180000305176,-50.718136746690
2.1199998855591,-50.638326035794
2.1219999790192,-50.549757907034
2.1240000724792,-50.452853268701
2.1259999275208,-50.348132980755
2.1280000209808,-50.236198211065
2.1300001144409,-50.117715097174
2.1319999694824,-49.993402200279
2.1340000629425,-49.864009831861
2.1359999179840,-49.730305965316
2.1380000114441,-49.593063631854
2.1400001049042,-49.453048073145
2.1419999599457,-49.311004784340
2.1440000534058,-49.167651560051
2.1459999084473,-49.023673312834
2.1480000019073,-48.879714641233
2.1500000953674,-48.736378677241
2.1519999504089,-48.594223273029
2.1540000438690,-48.453761285482
2.1559998989105,-48.315461501933
2.1579999923706,-48.179746830587
2.1600000858307,-48.046998563847
2.1619999408722,-47.917557385940
2.1640000343323,-47.791723354896
2.1659998893738,-47.669762740867
2.1679999828339,-47.551906448798
2.1700000762939,-47.438355074405
2.1719999313354,-47.329277639445
2.1740000247955,-47.224819455289
2.1760001182556,-47.125095994667
2.1779999732971,-47.030205617120
2.1800000667572,-46.940223280493
2.1819999217987,-46.855202265478
2.1840000152588,-46.775182304869
2.1860001087189,-46.700181827078
2.1879999637604,-46.630209698414
2.1900000572205,-46.565254301970
2.1919999122620,-46.505295452867
2.1940000057220,-46.450297947843
2.1960000991821,-46.400215744094
2.1979999542236,-46.354990923508
2.2000000476837,-46.314554795668
2.2019999027252,-46.278829697310
2.2039999961853,-46.247726056731
2.2060000896454,-46.221146460829
2.2079999446869,-46.198979337006
