frequency,refcoef
1.0000000000000,-20.121574368839
1.0019999742508,-20.114305167492
1.0039999485016,-20.110431531549
1.0060000419617,-20.109877023619
1.0080000162125,-20.112561028224
1.0099999904633,-20.118399876175
1.0119999647141,-20.127304349936
1.0140000581741,-20.139180426003
1.0160000324249,-20.153928998436
1.0180000066757,-20.171447068450
1.0199999809265,-20.191623719981
1.0219999551773,-20.214344305876
1.0240000486374,-20.239489721607
1.0260000228882,-20.266932448268
1.0279999971390,-20.296541211727
1.0299999713898,-20.328177206051
1.0319999456406,-20.361698074889
1.0340000391006,-20.396954621920
1.0360000133514,-20.433792514374
1.0379999876022,-20.472051684217
1.0399999618530,-20.511567303136
1.0420000553131,-20.552170684633
1.0440000295639,-20.593688241023
1.0460000038147,-20.635943131294
1.0479999780655,-20.678754967331
1.0499999523163,-20.721943377398
1.0520000457764,-20.765325093263
1.0540000200272,-20.808717216301
1.0559999942780,-20.851936825736
1.0579999685287,-20.894804398423
1.0599999427795,-20.937141387139
1.0620000362396,-20.978775082315
1.0640000104904,-21.019539083016
1.0659999847412,-21.059271063321
1.0679999589920,-21.097821409024
1.0700000524521,-21.135046829337
1.0720000267029,-21.170815774440
1.0740000009537,-21.205008773457
1.0759999752045,-21.237521320937
1.0779999494553,-21.268262442643
1.0800000429153,-21.297155217372
1.0820000171661,-21.324139569565
1.0839999914169,-21.349173077368
1.0859999656677,-21.372229312114
1.0880000591278,-21.393299274493
1.0900000333786,-21.412392041135
1.0920000076294,-21.429531797310
1.0939999818802,-21.444761174701
1.0959999561310,-21.458138399698
1.0980000495911,-21.469734996114
1.1000000238419,-21.479640410757
1.1019999980927,-21.487955738399
1.1039999723434,-21.494791353039
1.1059999465942,-21.500272267717
1.1080000400543,-21.504530244064
1.1100000143051,-21.507706551929
1.1119999885559,-21.509949324274
1.1139999628067,-21.511410573190
1.1160000562668,-21.512247607506
1.1180000305176,-21.512616788388
1.1200000047684,-21.512679374113
1.1219999790192,-21.512595168762
1.1239999532700,-21.512523301768
1.1260000467300,-21.512618870962
1.1280000209808,-21.513034185025
1.1299999952316,-21.513921378949
1.1319999694824,-21.515421436607
1.1339999437332,-21.517674184357
1.1360000371933,-21.520813354889
1.1380000114441,-21.524962778946
1.1399999856949,-21.530242344292
1.1419999599457,-21.536763835695
1.1440000534058,-21.544631481726
1.1460000276566,-21.553940275400
1.1480000019073,-21.564780426614
1.1499999761581,-21.577231580022
1.1519999504089,-21.591365221799
1.1540000438690,-21.607246929149
1.1560000181198,-21.624933200870
1.1579999923706,-21.644471920585
1.1599999666214,-21.665905194496
1.1619999408722,-21.689264958736
1.1640000343323,-21.714576725280
1.1660000085831,-21.741860618833
1.1679999828339,-21.771126860962
1.1699999570847,-21.802380381643
1.1720000505447,-21.835618992664
1.1740000247955,-21.870834080474
1.1759999990463,-21.908009899214
1.1779999732971,-21.947127756914
1.1799999475479,-21.988160779118
1.1820000410080,-22.031076198700
1.1840000152588,-22.075840142900
1.1859999895096,-22.122410160973
1.1879999637604,-22.170741232315
1.1900000572205,-22.220783133474
1.1920000314713,-22.272485165588
1.1940000057220,-22.325789860452
1.1959999799728,-22.380640004940
1.1979999542236,-22.436973229399
1.2000000476837,-22.494727460405
1.2020000219345,-22.553839992511
1.2039999961853,-22.614244947908
1.2059999704361,-22.675877290426
1.2079999446869,-22.738674669275
1.2100000381470,-22.802568799429
1.2120000123978,-22.867499349653
1.2139999866486,-22.933404383794
1.2159999608994,-23.000225502648
1.2180000543594,-23.067905687047
1.2200000286102,-23.136392754909
1.2220000028610,-23.205636482252
1.2239999771118,-23.275592080791
1.2259999513626,-23.346220837432
1.2280000448227,-23.417484864653
1.2300000190735,-23.489355912434
1.2319999933243,-23.561807650682
1.2339999675751,-23.634822600877
1.2359999418259,-23.708389245076
1.2380000352859,-23.782499525439
1.2400000095367,-23.857154510675
1.2419999837875,-23.932361201904
1.2439999580383,-24.008131013007
1.2460000514984,-24.084484700026
1.2480000257492,-24.161445656230
1.2500000000000,-24.239045256555
1.2519999742508,-24.317321072716
1.2539999485016,-24.396314858043
1.2560000419617,-24.476071391790
1.2580000162125,-24.556643764460
1.2599999904633,-24.638086259827
1.2619999647141,-24.720456546722
1.2640000581741,-24.803815828450
1.2660000324249,-24.888229174937
1.2680000066757,-24.973760031111
1.2699999809265,-25.060475222872
1.2719999551773,-25.148440306671
1.2740000486374,-25.237721688179
1.2760000228882,-25.328384473559
1.2779999971390,-25.420492190808
1.2799999713898,-25.514104900617
1.2819999456406,-25.609281395079
1.2840000391006,-25.706073919572
1.2860000133514,-25.804533634352
1.2879999876022,-25.904704493357
1.2899999618530,-26.006624098509
1.2920000553131,-26.110326162443
1.2940000295639,-26.215833869155
1.2960000038147,-26.323165531956
1.2979999780655,-26.432330003555
1.2999999523163,-26.543327195032
1.3020000457764,-26.656146054491
1.3040000200272,-26.770768948843
1.3059999942780,-26.887164785248
1.3079999685287,-27.005292044252
1.3099999427795,-27.125099030516
1.3120000362396,-27.246521477944
1.3140000104904,-27.369481601980
1.3159999847412,-27.493892566731
1.3179999589920,-27.619652436822
1.3200000524521,-27.746647121256
1.3220000267029,-27.874751384260
1.3240000009537,-28.003827115776
1.3259999752045,-28.133724602394
1.3279999494553,-28.264282610921
1.3300000429153,-28.395329837344
1.3320000171661,-28.526684249090
1.3339999914169,-28.658157304446
1.3359999656677,-28.789549597251
1.3380000591278,-28.920661509916
1.3400000333786,-29.051284635881
1.3420000076294,-29.181209616364
1.3439999818802,-29.310227651076
1.3459999561310,-29.438133735051
1.3480000495911,-29.564724239721
1.3500000238419,-29.689808568723
1.3519999980927,-29.813199997019
1.3539999723434,-29.934729822611
1.3559999465942,-30.054240961981
1.3580000400543,-30.171596580162
1.3600000143051,-30.286680338549
1.3619999885559,-30.399397081099
1.3639999628067,-30.509677792110
1.3660000562668,-30.617477978159
1.3680000305176,-30.722780972010
1.3700000047684,-30.825597810866
1.3719999790192,-30.925968895826
1.3739999532700,-31.023959785308
1.3760000467300,-31.119665804826
1.3780000209808,-31.213207406744
1.3799999952316,-31.304728549888
1.3819999694824,-31.394397770513
1.3839999437332,-31.482403790388
1.3860000371933,-31.568950472232
1.3880000114441,-31.654260504685
1.3899999856949,-31.738565171563
1.3919999599457,-31.822108439693
1.3940000534058,-31.905138267394
1.3960000276566,-31.987907416107
1.3980000019073,-32.070665598168
1.3999999761581,-32.153663284353
1.4019999504089,-32.237144917038
1.4040000438690,-32.321344005420
1.4060000181198,-32.406486497847
1.4079999923706,-32.492785015164
1.4099999666214,-32.580436076713
1.4119999408722,-32.669620547911
1.4140000343323,-32.760498311470
1.4160000085831,-32.853210240998
1.4179999828339,-32.947875225823
1.4199999570847,-33.044585934552
1.4220000505447,-33.143413380633
1.4240000247955,-33.244396988729
1.4259999990463,-33.347554015278
1.4279999732971,-33.452867823222
1.4299999475479,-33.560294417871
1.4320000410080,-33.669760551737
1.4340000152588,-33.781154734448
1.4359999895096,-33.894337790636
1.4379999637604,-34.009137605888
1.4400000572205,-34.125347510177
1.4420000314713,-34.242727519326
1.4440000057220,-34.361005978852
1.4459999799728,-34.479878339860
1.4479999542236,-34.599010290693
1.4500000476837,-34.718040094355
1.4520000219345,-34.836578750800
1.4539999961853,-34.954215586011
1.4559999704361,-35.070523361168
1.4579999446869,-35.185060554664
1.4600000381470,-35.297377467777
1.4620000123978,-35.407026691684
1.4639999866486,-35.513566890343
1.4659999608994,-35.616567723726
1.4680000543594,-35.715625346450
1.4700000286102,-35.810366592335
1.4720000028610,-35.900456390120
1.4739999771118,-35.985607037409
1.4759999513626,-36.065584391863
1.4780000448227,-36.140217703548
1.4800000190735,-36.209397251082
1.4819999933243,-36.273084212486
1.4839999675751,-36.331307870522
1.4859999418259,-36.384170332890
1.4880000352859,-36.431838750386
1.4900000095367,-36.474547763551
1.4919999837875,-36.512589849997
1.4939999580383,-36.546312200662
1.4960000514984,-36.576107079478
1.4980000257492,-36.602405686072
1.5000000000000,-36.625668263804
1.5019999742508,-36.646378119828
1.5039999485016,-36.665029529855
1.5060000419617,-36.682122632219
1.5080000162125,-36.698155384365
1.5099999904633,-36.713613231968
1.5119999647141,-36.728970177209
1.5140000581741,-36.744674903860
1.5160000324249,-36.761153024679
1.5180000066757,-36.778798679246
1.5199999809265,-36.797971516227
1.5219999551773,-36.818998378560
1.5240000486374,-36.842164568475
1.5260000228882,-36.867715768359
1.5279999971390,-36.895856724681
1.5299999713898,-36.926748829836
1.5319999456406,-36.960509036947
1.5340000391006,-36.997211041041
1.5360000133514,-37.036880996492
1.5379999876022,-37.079498768379
1.5399999618530,-37.125001939122
1.5420000553131,-37.173274873802
1.5440000295639,-37.224159457036
1.5460000038147,-37.277447390956
1.5479999780655,-37.332887190052
1.5499999523163,-37.390176548207
1.5520000457764,-37.448972062174
1.5540000200272,-37.508884930133
1.5559999942780,-37.569483771126
1.5579999685287,-37.630301522736
1.5599999427795,-37.690835786497
1.5620000362396,-37.750554173863
1.5640000104904,-37.808903981586
1.5659999847412,-37.865315930966
1.5679999589920,-37.919212409479
1.5700000524521,-37.970019246440
1.5720000267029,-38.017175009110
1.5740000009537,-38.060144698921
1.5759999752045,-38.098425981718
1.5779999494553,-38.131565518986
1.5800000429153,-38.159167420683
1.5820000171661,-38.180905719145
1.5839999914169,-38.196530802393
1.5859999656677,-38.205879064855
1.5880000591278,-38.208875188752
1.5900000333786,-38.205536069910
1.5920000076294,-38.195970284397
1.5939999818802,-38.180377894255
1.5959999561310,-38.159041793279
1.5980000495911,-38.132321702754
1.6000000238419,-38.100648417422
1.6019999980927,-38.064509317903
1.6039999723434,-38.024438766523
1.6059999465942,-37.981009488938
1.6080000400543,-37.934817169398
1.6100000143051,-37.886472720678
1.6119999885559,-37.836590669678
1.6139999628067,-37.785776977119
1.6160000562668,-37.734628561576
1.6180000305176,-37.683719296274
1.6200000047684,-37.633595842085
1.6219999790192,-37.584775671612
1.6239999532700,-37.537740025140
1.6260000467300,-37.492931024669
1.6280000209808,-37.450753502780
1.6299999952316,-37.411569658566
1.6319999694824,-37.375700016795
1.6339999437332,-37.343421667487
1.6360000371933,-37.314971152889
1.6380000114441,-37.290539436223
1.6399999856949,-37.270277235674
1.6419999599457,-37.254291343621
1.6440000534058,-37.242648717210
1.6460000276566,-37.235371979375
1.6480000019073,-37.232442186886
1.6499999761581,-37.233800849550
1.6519999504089,-37.239343352119
1.6540000438690,-37.248927587022
1.6560000181198,-37.262364521619
1.6579999923706,-37.279426209714
1.6599999666214,-37.299841057530
1.6619999408722,-37.323294646137
1.6640000343323,-37.349431937568
1.6660000085831,-37.377857795083
1.6679999828339,-37.408134392550
1.6699999570847,-37.439790399941
1.6720000505447,-37.472316516601
1.6740000247955,-37.505174901659
1.6759999990463,-37.537799506454
1.6779999732971,-37.569604379040
1.6799999475479,-37.599990959802
1.6820000410080,-37.628352786689
1.6840000152588,-37.654088391423
1.6859999895096,-37.676610203548
1.6879999637604,-37.695353342648
1.6900000572205,-37.709789192959
1.6920000314713,-37.719436643548
1.6940000057220,-37.723871821177
1.6959999799728,-37.722739199110
1.6979999542236,-37.715759650823
1.7000000476837,-37.702739391945
1.7020000219345,-37.683572968156
1.7039999961853,-37.658247493008
1.7059999704361,-37.626843423423
1.7079999446869,-37.589531399245
1.7100000381470,-37.546567128043
1.7120000123978,-37.498286491375
1.7139999866486,-37.445097377388
1.7159999608994,-37.387467225186
1.7180000543594,-37.325913643314
1.7200000286102,-37.260993047158
1.7220000028610,-37.193291404831
1.7239999771118,-37.123409169432
1.7259999513626,-37.051955167773
1.7280000448227,-36.979534069209
1.7300000190735,-36.906738266729
1.7319999933243,-36.834145355544
1.7339999675751,-36.762304786153
1.7359999418259,-36.691738011147
1.7380000352859,-36.622932906486
1.7400000095367,-36.556340203432
1.7419999837875,-36.492373163737
1.7439999580383,-36.431403546270
1.7460000514984,-36.373762313552
1.7480000257492,-36.319738067061
1.7500000000000,-36.269577608472
1.7519999742508,-36.223485000316
1.7539999485016,-36.181621595853
1.7560000419617,-36.144104935600
1.7580000162125,-36.111012521412
1.7599999904633,-36.082376158826
1.7619999647141,-36.058187223517
1.7640000581741,-36.038390096175
1.7660000324249,-36.022890764106
1.7680000066757,-36.011543607244
1.7699999809265,-36.004163121744
1.7719999551773,-36.000516027606
1.7740000486374,-36.000321213108
1.7760000228882,-36.003252419311
1.7779999971390,-36.008934185357
1.7799999713898,-36.016943050574
1.7819999456406,-36.026812443706
1.7840000391006,-36.038025265996
1.7860000133514,-36.050023293166
1.7879999876022,-36.062208364030
1.7899999618530,-36.073946564614
1.7920000553131,-36.084570256947
1.7940000295639,-36.093394525938
1.7960000038147,-36.099713501265
1.7979999780655,-36.102822122002
1.7999999523163,-36.102020512907
1.8020000457764,-36.096631907727
1.8040000200272,-36.086010413359
1.8059999942780,-36.069562791820
1.8079999685287,-36.046755601313
1.8099999427795,-36.017135440072
1.8120000362396,-35.980335479857
1.8140000104904,-35.936090788135
1.8159999847412,-35.884242616787
1.8179999589920,-35.824745612543
1.8200000524521,-35.757667645181
1.8220000267029,-35.683188895399
1.8240000009537,-35.601598317060
1.8259999752045,-35.513285353929
1.8279999494553,-35.418726130809
1.8300000429153,-35.318477661566
1.8320000171661,-35.213158090127
1.8339999914169,-35.103438749035
1.8359999656677,-34.990024469858
1.8380000591278,-34.873642867193
1.8400000333786,-34.755033136567
1.8420000076294,-34.634935459824
1.8439999818802,-34.514076602928
1.8459999561310,-34.393165789532
1.8480000495911,-34.272889320306
1.8500000238419,-34.153902647108
1.8519999980927,-34.036827856715
1.8539999723434,-33.922251526624
1.8559999465942,-33.810725030358
1.8580000400543,-33.702763822444
1.8600000143051,-33.598845707577
1.8619999885559,-33.499416062411
1.8639999628067,-33.404883969585
1.8660000562668,-33.315630203815
1.8680000305176,-33.232004523298
1.8700000047684,-33.154331216029
1.8719999790192,-33.082912342223
1.8739999532700,-33.018022791284
1.8760000467300,-32.959921351237
1.8780000209808,-32.908850112509
1.8799999952316,-32.865033321591
1.8819999694824,-32.828686181085
1.8839999437332,-32.800008372534
1.8860000371933,-32.779194828432
1.8880000114441,-32.766430182637
1.8899999856949,-32.761895743007
1.8919999599457,-32.765768286385
1.8940000534058,-32.778222523766
1.8960000276566,-32.799431783501
1.8980000019073,-32.829570455715
1.8999999761581,-32.868815498893
1.9019999504089,-32.917346214234
1.9040000438690,-32.975346276548
1.9060000181198,-33.043006127097
1.9079999923706,-33.120521095389
1.9099999666214,-33.208095391208
1.9119999408722,-33.305942743817
1.9140000343323,-33.414285067184
1.9160000085831,-33.533356307373
1.9179999828339,-33.663400073596
1.9199999570847,-33.804675854132
1.9220000505447,-33.957450907135
1.9240000247955,-34.122008347099
1.9259999990463,-34.298646229099
1.9279999732971,-34.487670679435
1.9299999475479,-34.689404192723
1.9320000410080,-34.904176278081
1.9340000152588,-35.132329523712
1.9359999895096,-35.374205356533
1.9379999637604,-35.630146622657
1.9400000572205,-35.900488418403
1.9420000314713,-36.185546917407
1.9440000057220,-36.485602568547
1.9459999799728,-36.800884820273
1.9479999542236,-37.131541436964
1.9500000476837,-37.477604777634
1.9520000219345,-37.838942186467
1.9539999961853,-38.215195066551
1.9559999704361,-38.605689177422
1.9579999446869,-39.009336749741
1.9600000381470,-39.424490949274
1.9620000123978,-39.848782646266
1.9639999866486,-40.278917381946
1.9659999608994,-40.710452970626
1.9680000543594,-41.137572137410
1.9700000286102,-41.552899408576
1.9720000028610,-41.947424246271
1.9739999771118,-42.310650819044
1.9759999513626,-42.631048067617
1.9780000448227,-42.896926743252
1.9800000190735,-43.097684418228
1.9819999933243,-43.225253153161
1.9839999675751,-43.275401310562
1.9859999418259,-43.248480288012
1.9880000352859,-43.149373001732
1.9900000095367,-42.986635762671
1.9919999837875,-42.771163703965
1.9939999580383,-42.514749298559
1.9960000514984,-42.228877548218
1.9980000257492,-41.923918429885
2.0000000000000,-41.608714673607
2.0020000934601,-41.290476199049
2.0039999485016,-40.974877611431
2.0060000419617,-40.666245423348
2.0079998970032,-40.367792377705
2.0099999904633,-40.081835776896
2.0120000839233,-39.809992844323
2.0139999389648,-39.553346400820
2.0160000324249,-39.312579554268
2.0179998874664,-39.088073793168
2.0199999809265,-38.879992277910
2.0220000743866,-38.688341086266
2.0239999294281,-38.513015717743
2.0260000228882,-38.353831631787
2.0280001163483,-38.210553189137
2.0299999713898,-38.082912776384
2.0320000648499,-37.970618756790
2.0339999198914,-37.873370290679
2.0360000133514,-37.790861054217
2.0380001068115,-37.722782244552
2.0399999618530,-37.668827343482
2.0420000553131,-37.628690028291
2.0439999103546,-37.602065812468
2.0460000038147,-37.588647226038
2.0480000972748,-37.588126809037
2.0499999523163,-37.600187287940
2.0520000457764,-37.624501768201
2.0539999008179,-37.660727131464
2.0559999942780,-37.708499955209
2.0580000877380,-37.767428523814
2.0599999427795,-37.837082893238
2.0620000362396,-37.916992272448
2.0639998912811,-38.006630253985
2.0659999847412,-38.105407415536
2.0680000782013,-38.212656361516
2.0699999332428,-38.327625956943
2.0720000267029,-38.449460787207
2.0739998817444,-38.577194596664
2.0759999752045,-38.709733419352
2.0780000686646,-38.845846194800
2.0799999237061,-38.984157293085
2.0820000171661,-39.123137910851
2.0840001106262,-39.261108864364
2.0859999656677,-39.396247143032
2.0880000591278,-39.526603106379
2.0899999141693,-39.650125304431
2.0920000076294,-39.764706276234
2.0940001010895,-39.868230053502
2.0959999561310,-39.958641165294
2.0980000495911,-40.034015420215
2.0999999046326,-40.092644119880
2.1019999980927,-40.133107887820
2.1040000915527,-40.154349065350
2.1059999465942,-40.155725415241
2.1080000400543,-40.137046315880
2.1099998950958,-40.098577443132
2.1119999885559,-40.041022534884
2.1140000820160,-39.965483813822
2.1159999370575,-39.873394650732
2.1180000305176,-39.766449223593
2.1199998855591,-39.646521463675
2.1219999790192,-39.515583506524
2.1240000724792,-39.375636982665
2.1259999275208,-39.228650628569
2.1280000209808,-39.076513698270
2.1300001144409,-38.920994793020
2.1319999694824,-38.763724593154
2.1340000629425,-38.606177592759
2.1359999179840,-38.449667940042
2.1380000114441,-38.295352144373
2.1400001049042,-38.144235138871
2.1419999599457,-37.997175306438
2.1440000534058,-37.854902970517
2.1459999084473,-37.718022293310
2.1480000019073,-37.587033104731
2.1500000953674,-37.462335098088
2.1519999504089,-37.344242076843
2.1540000438690,-37.232990831896
2.1559998989105,-37.128747510420
2.1579999923706,-37.031622353988
2.1600000858307,-36.941665868457
2.1619999408722,-36.858884598151
2.1640000343323,-36.783239342608
2.1659998893738,-36.714653170419
2.1679999828339,-36.653012353926
2.1700000762939,-36.598169989588
2.1719999313354,-36.549947104950
2.1740000247955,-36.508137990597
2.1760001182556,-36.472506552910
2.1779999732971,-36.442789034024
2.1800000667572,-36.418698000493
2.1819999217987,-36.399918779600
2.1840000152588,-36.386112474351
2.1860001087189,-36.376915273067
2.1879999637604,-36.371940189352
2.1900000572205,-36.370777347017
2.1919999122620,-36.372994720940
2.1940000057220,-36.378141353809
2.1960000991821,-36.385747711997
2.1979999542236,-36.395327001754
2.2000000476837,-36.406380856942
2.2019999027252,-36.418400871995
2.2039999961853,-36.430873396899
2.2060000896454,-36.443283586734
2.2079999446869,-36.455121101646
