frequency,refcoef
1.0000000000000,-16.337645607994
1.0019999742508,-16.296831060035
1.0039999485016,-16.259586844896
1.0060000419617,-16.225755374647
1.0080000162125,-16.195170280263
1.0099999904633,-16.167655559679
1.0119999647141,-16.143030467714
1.0140000581741,-16.121107412789
1.0160000324249,-16.101695531094
1.0180000066757,-16.084602827525
1.0199999809265,-16.069637773632
1.0219999551773,-16.056611236751
1.0240000486374,-16.045336885486
1.0260000228882,-16.035634951659
1.0279999971390,-16.027332799483
1.0299999713898,-16.020269232186
1.0319999456406,-16.014292497558
1.0340000391006,-16.009263860414
1.0360000133514,-16.005059568876
1.0379999876022,-16.001569841791
1.0399999618530,-15.998701649581
1.0420000553131,-15.996378574418
1.0440000295639,-15.994540513782
1.0460000038147,-15.993146423142
1.0479999780655,-15.992168394427
1.0499999523163,-15.991600522538
1.0520000457764,-15.991444987355
1.0540000200272,-15.991726578745
1.0559999942780,-15.992475709768
1.0579999685287,-15.993739414432
1.0599999427795,-15.995572859572
1.0620000362396,-15.998037211103
1.0640000104904,-16.001203043783
1.0659999847412,-16.005143402314
1.0679999589920,-16.009931441565
1.0700000524521,-16.015643319617
1.0720000267029,-16.022350062342
1.0740000009537,-16.030120996181
1.0759999752045,-16.039018079804
1.0779999494553,-16.049094886976
1.0800000429153,-16.060398771559
1.0820000171661,-16.072962723948
1.0839999914169,-16.086810401803
1.0859999656677,-16.101952865956
1.0880000591278,-16.118385408630
1.0900000333786,-16.136093272036
1.0920000076294,-16.155043825185
1.0939999818802,-16.175190404507
1.0959999561310,-16.196475807753
1.0980000495911,-16.218824863205
1.1000000238419,-16.242152889151
1.1019999980927,-16.266360069452
1.1039999723434,-16.291340394188
1.1059999465942,-16.316974446084
1.1080000400543,-16.343136177832
1.1100000143051,-16.369694353261
1.1119999885559,-16.396514744849
1.1139999628067,-16.423459292250
1.1160000562668,-16.450392227845
1.1180000305176,-16.477181620926
1.1200000047684,-16.503696944820
1.1219999790192,-16.529819130931
1.1239999532700,-16.555438216437
1.1260000467300,-16.580453421197
1.1280000209808,-16.604782237128
1.1299999952316,-16.628353596052
1.1319999694824,-16.651115528283
1.1339999437332,-16.673033259991
1.1360000371933,-16.694089444119
1.1380000114441,-16.714290694835
1.1399999856949,-16.733655707300
1.1419999599457,-16.752225862801
1.1440000534058,-16.770058945011
1.1460000276566,-16.787231756900
1.1480000019073,-16.803832029223
1.1499999761581,-16.819962264549
1.1519999504089,-16.835739866597
1.1540000438690,-16.851285637700
1.1560000181198,-16.866732298038
1.1579999923706,-16.882214602276
1.1599999666214,-16.897868258291
1.1619999408722,-16.913830156541
1.1640000343323,-16.930233550708
1.1660000085831,-16.947208551440
1.1679999828339,-16.964877855150
1.1699999570847,-16.983350939686
1.1720000505447,-17.002733260892
1.1740000247955,-17.023112238621
1.1759999990463,-17.044563039383
1.1779999732971,-17.067150110507
1.1799999475479,-17.090916956970
1.1820000410080,-17.115893573693
1.1840000152588,-17.142095872416
1.1859999895096,-17.169518677174
1.1879999637604,-17.198143881429
1.1900000572205,-17.227938043051
1.1920000314713,-17.258853188380
1.1940000057220,-17.290824047934
1.1959999799728,-17.323777529152
1.1979999542236,-17.357625748701
1.2000000476837,-17.392274534340
1.2020000219345,-17.427620773188
1.2039999961853,-17.463553824007
1.2059999704361,-17.499963869190
1.2079999446869,-17.536737374289
1.2100000381470,-17.573761680510
1.2120000123978,-17.610926533455
1.2139999866486,-17.648133729011
1.2159999608994,-17.685286462129
1.2180000543594,-17.722301135457
1.2200000286102,-17.759105379462
1.2220000028610,-17.795640616353
1.2239999771118,-17.831864406219
1.2259999513626,-17.867751474057
1.2280000448227,-17.903291014057
1.2300000190735,-17.938493055102
1.2319999933243,-17.973382629615
1.2339999675751,-18.008004759224
1.2359999418259,-18.042421565058
1.2380000352859,-18.076706482509
1.2400000095367,-18.110954091938
1.2419999837875,-18.145267565694
1.2439999580383,-18.179762413347
1.2460000514984,-18.214563001826
1.2480000257492,-18.249801090008
1.2500000000000,-18.285612743142
1.2519999742508,-18.322135663026
1.2539999485016,-18.359508069185
1.2560000419617,-18.397865830889
1.2580000162125,-18.437337067399
1.2599999904633,-18.478046901854
1.2619999647141,-18.520108626580
1.2640000581741,-18.563625321449
1.2660000324249,-18.608686208242
1.2680000066757,-18.655367818948
1.2699999809265,-18.703730853886
1.2719999551773,-18.753817761968
1.2740000486374,-18.805654885010
1.2760000228882,-18.859251100190
1.2779999971390,-18.914594201993
1.2799999713898,-18.971657946224
1.2819999456406,-19.030393178295
1.2840000391006,-19.090738210694
1.2860000133514,-19.152609305177
1.2879999876022,-19.215910601439
1.2899999618530,-19.280531316904
1.2920000553131,-19.346346616829
1.2940000295639,-19.413222631646
1.2960000038147,-19.481013975615
1.2979999780655,-19.549572357335
1.2999999523163,-19.618742715852
1.3020000457764,-19.688370412405
1.3040000200272,-19.758301820180
1.3059999942780,-19.828388081587
1.3079999685287,-19.898487295106
1.3099999427795,-19.968467845536
1.3120000362396,-20.038212374707
1.3140000104904,-20.107615138460
1.3159999847412,-20.176591435304
1.3179999589920,-20.245074801218
1.3200000524521,-20.313018958382
1.3220000267029,-20.380400695440
1.3240000009537,-20.447217162632
1.3259999752045,-20.513490620358
1.3279999494553,-20.579261827074
1.3300000429153,-20.644596743290
1.3320000171661,-20.709577886622
1.3339999914169,-20.774305613390
1.3359999656677,-20.838898201498
1.3380000591278,-20.903482974352
1.3400000333786,-20.968203112015
1.3420000076294,-21.033202531800
1.3439999818802,-21.098632130355
1.3459999561310,-21.164642183469
1.3480000495911,-21.231380695306
1.3500000238419,-21.298989759120
1.3519999980927,-21.367599696782
1.3539999723434,-21.437331571854
1.3559999465942,-21.508290430488
1.3580000400543,-21.580562992649
1.3600000143051,-21.654217281769
1.3619999885559,-21.729298788977
1.3639999628067,-21.805828664467
1.3660000562668,-21.883807894862
1.3680000305176,-21.963204602211
1.3700000047684,-22.043971250725
1.3719999790192,-22.126025534076
1.3739999532700,-22.209264139554
1.3760000467300,-22.293560569357
1.3780000209808,-22.378763071308
1.3799999952316,-22.464702484726
1.3819999694824,-22.551187365496
1.3839999437332,-22.638014589705
1.3860000371933,-22.724967087491
1.3880000114441,-22.811821431586
1.3899999856949,-22.898351215727
1.3919999599457,-22.984326449741
1.3940000534058,-23.069528275083
1.3960000276566,-23.153745660108
1.3980000019073,-23.236782417693
1.3999999761581,-23.318464239925
1.4019999504089,-23.398639212448
1.4040000438690,-23.477183941517
1.4060000181198,-23.554008980414
1.4079999923706,-23.629058137931
1.4099999666214,-23.702307465078
1.4119999408722,-23.773776072904
1.4140000343323,-23.843514923973
1.4160000085831,-23.911612277367
1.4179999828339,-23.978190087584
1.4199999570847,-24.043403460962
1.4220000505447,-24.107432513225
1.4240000247955,-24.170479400434
1.4259999990463,-24.232768637344
1.4279999732971,-24.294534408631
1.4299999475479,-24.356019465980
1.4320000410080,-24.417469648555
1.4340000152588,-24.479126657192
1.4359999895096,-24.541222433660
1.4379999637604,-24.603977255673
1.4400000572205,-24.667590621186
1.4420000314713,-24.732238752162
1.4440000057220,-24.798071612688
1.4459999799728,-24.865207836125
1.4479999542236,-24.933731540288
1.4500000476837,-25.003691574881
1.4520000219345,-25.075099503677
1.4539999961853,-25.147925743055
1.4559999704361,-25.222104546273
1.4579999446869,-25.297527681190
1.4600000381470,-25.374049029006
1.4620000123978,-25.451489493152
1.4639999866486,-25.529632229869
1.4659999608994,-25.608230072923
1.4680000543594,-25.687011868622
1.4700000286102,-25.765684060033
1.4720000028610,-25.843935016205
1.4739999771118,-25.921448620362
1.4759999513626,-25.997902001709
1.4780000448227,-26.072980145354
1.4800000190735,-26.146380770570
1.4819999933243,-26.217821715967
1.4839999675751,-26.287051317969
1.4859999418259,-26.353851906645
1.4880000352859,-26.418049524054
1.4900000095367,-26.479515961012
1.4919999837875,-26.538176853473
1.4939999580383,-26.594013301865
1.4960000514984,-26.647057931895
1.4980000257492,-26.697405122358
1.5000000000000,-26.745198663817
1.5019999742508,-26.790634531249
1.5039999485016,-26.833951753355
1.5060000419617,-26.875430851695
1.5080000162125,-26.915383115520
1.5099999904633,-26.954143478677
1.5119999647141,-26.992062010817
1.5140000581741,-27.029499383739
1.5160000324249,-27.066810914030
1.5180000066757,-27.104345018496
1.5199999809265,-27.142431602303
1.5219999551773,-27.181377465576
1.5240000486374,-27.221458867381
1.5260000228882,-27.262913498609
1.5279999971390,-27.305939106411
1.5299999713898,-27.350686912485
1.5319999456406,-27.397257633980
1.5340000391006,-27.445701034591
1.5360000133514,-27.496013791135
1.5379999876022,-27.548136828718
1.5399999618530,-27.601957756459
1.5420000553131,-27.657309473539
1.5440000295639,-27.713974929539
1.5460000038147,-27.771686370028
1.5479999780655,-27.830133904235
1.5499999523163,-27.888968878882
1.5520000457764,-27.947807504979
1.5540000200272,-28.006243599975
1.5559999942780,-28.063854460591
1.5579999685287,-28.120210277109
1.5599999427795,-28.174885311010
1.5620000362396,-28.227468342885
1.5640000104904,-28.277574686826
1.5659999847412,-28.324856205618
1.5679999589920,-28.369012299707
1.5700000524521,-28.409799397671
1.5720000267029,-28.447039799959
1.5740000009537,-28.480624436946
1.5759999752045,-28.510520501349
1.5779999494553,-28.536773088471
1.5800000429153,-28.559503742084
1.5820000171661,-28.578904952309
1.5839999914169,-28.595238670079
1.5859999656677,-28.608828041097
1.5880000591278,-28.620045090356
1.5900000333786,-28.629306343927
1.5920000076294,-28.637054839885
1.5939999818802,-28.643757543800
1.5959999561310,-28.649882531193
1.5980000495911,-28.655896610277
1.6000000238419,-28.662255043136
1.6019999980927,-28.669383582401
1.6039999723434,-28.677675193931
1.6059999465942,-28.687485904565
1.6080000400543,-28.699120414711
1.6100000143051,-28.712827278834
1.6119999885559,-28.728802627208
1.6139999628067,-28.747177582744
1.6160000562668,-28.768017254497
1.6180000305176,-28.791321745939
1.6200000047684,-28.817026026451
1.6219999790192,-28.844997589707
1.6239999532700,-28.875038013699
1.6260000467300,-28.906886887220
1.6280000209808,-28.940225994336
1.6299999952316,-28.974682693169
1.6319999694824,-29.009839585947
1.6339999437332,-29.045235986671
1.6360000371933,-29.080384682742
1.6380000114441,-29.114774613395
1.6399999856949,-29.147889535678
1.6419999599457,-29.179219052406
1.6440000534058,-29.208266192698
1.6460000276566,-29.234570186205
1.6480000019073,-29.257714532681
1.6499999761581,-29.277339129887
1.6519999504089,-29.293155890276
1.6540000438690,-29.304954507877
1.6560000181198,-29.312613517423
1.6579999923706,-29.316101257829
1.6599999666214,-29.315481415721
1.6619999408722,-29.310907693121
1.6640000343323,-29.302623635731
1.6660000085831,-29.290952221007
1.6679999828339,-29.276288610968
1.6699999570847,-29.259086735660
1.6720000505447,-29.239848534052
1.6740000247955,-29.219109502924
1.6759999990463,-29.197422045648
1.6779999732971,-29.175349328510
1.6799999475479,-29.153445092482
1.6820000410080,-29.132243081412
1.6840000152588,-29.112248527410
1.6859999895096,-29.093928879421
1.6879999637604,-29.077699519020
1.6900000572205,-29.063922432129
1.6920000314713,-29.052899937884
1.6940000057220,-29.044866942377
1.6959999799728,-29.039990022895
1.6979999542236,-29.038361672945
1.7000000476837,-29.040003011728
1.7020000219345,-29.044859776022
1.7039999961853,-29.052801509599
1.7059999704361,-29.063627944151
1.7079999446869,-29.077064913296
1.7100000381470,-29.092770910949
1.7120000123978,-29.110344850992
1.7139999866486,-29.129321446735
1.7159999608994,-29.149194142540
1.7180000543594,-29.169406592324
1.7200000286102,-29.189383333564
1.7220000028610,-29.208520943158
1.7239999771118,-29.226218667637
1.7259999513626,-29.241882042009
1.7280000448227,-29.254948942373
1.7300000190735,-29.264894272737
1.7319999933243,-29.271254031283
1.7339999675751,-29.273634873524
1.7359999418259,-29.271731280345
1.7380000352859,-29.265333646472
1.7400000095367,-29.254336261325
1.7419999837875,-29.238740330588
1.7439999580383,-29.218660049468
1.7460000514984,-29.194314555690
1.7480000257492,-29.166022159396
1.7500000000000,-29.134190946333
1.7519999742508,-29.099310201829
1.7539999485016,-29.061932030147
1.7560000419617,-29.022657899907
1.7580000162125,-28.982124250014
1.7599999904633,-28.940982659557
1.7619999647141,-28.899888550388
1.7640000581741,-28.859486002649
1.7660000324249,-28.820395092585
1.7680000066757,-28.783198863912
1.7699999809265,-28.748434047276
1.7719999551773,-28.716584848037
1.7740000486374,-28.688073326769
1.7760000228882,-28.663253905584
1.7779999971390,-28.642411574921
1.7799999713898,-28.625750902020
1.7819999456406,-28.613404350594
1.7840000391006,-28.605418456679
1.7860000133514,-28.601761662845
1.7879999876022,-28.602320404930
1.7899999618530,-28.606894808397
1.7920000553131,-28.615207868222
1.7940000295639,-28.626900579925
1.7960000038147,-28.641537808057
1.7979999780655,-28.658611799485
1.7999999523163,-28.677548923381
1.8020000457764,-28.697716718472
1.8040000200272,-28.718434513807
1.8059999942780,-28.738982532370
1.8079999685287,-28.758620779397
1.8099999427795,-28.776600432215
1.8120000362396,-28.792186157368
1.8140000104904,-28.804672505714
1.8159999847412,-28.813405388113
1.8179999589920,-28.817804378171
1.8200000524521,-28.817379611619
1.8220000267029,-28.811753723424
1.8240000009537,-28.800669060565
1.8259999752045,-28.784007072510
1.8279999494553,-28.761791267896
1.8300000429153,-28.734190568383
1.8320000171661,-28.701509897855
1.8339999914169,-28.664197469374
1.8359999656677,-28.622812663619
1.8380000591278,-28.578030055190
1.8400000333786,-28.530609219555
1.8420000076294,-28.481381303716
1.8439999818802,-28.431228379822
1.8459999561310,-28.381065706638
1.8480000495911,-28.331825236798
1.8500000238419,-28.284435729735
1.8519999980927,-28.239812516193
1.8539999723434,-28.198849281927
1.8559999465942,-28.162399517267
1.8580000400543,-28.131278646403
1.8600000143051,-28.106257208569
1.8619999885559,-28.088053207985
1.8639999628067,-28.077334056131
1.8660000562668,-28.074715924252
1.8680000305176,-28.080763355769
1.8700000047684,-28.095985604148
1.8719999790192,-28.120845375570
1.8739999532700,-28.155755293989
1.8760000467300,-28.201076631971
1.8780000209808,-28.257125394995
1.8799999952316,-28.324170917782
1.8819999694824,-28.402433318384
1.8839999437332,-28.492086138827
1.8860000371933,-28.593252716474
1.8880000114441,-28.706007305041
1.8899999856949,-28.830365698061
1.8919999599457,-28.966290601687
1.8940000534058,-29.113678908072
1.8960000276566,-29.272356811438
1.8980000019073,-29.442079321888
1.8999999761581,-29.622513529382
1.9019999504089,-29.813235269475
1.9040000438690,-30.013718682657
1.9060000181198,-30.223324847854
1.9079999923706,-30.441294831611
1.9099999666214,-30.666738010954
1.9119999408722,-30.898624691641
1.9140000343323,-31.135781876150
1.9160000085831,-31.376893396732
1.9179999828339,-31.620502102425
1.9199999570847,-31.865021704847
1.9220000505447,-32.108759354729
1.9240000247955,-32.349942945227
1.9259999990463,-32.586759608320
1.9279999732971,-32.817411359105
1.9299999475479,-33.040168535556
1.9320000410080,-33.253438108941
1.9340000152588,-33.455827614742
1.9359999895096,-33.646203996088
1.9379999637604,-33.823747745621
1.9400000572205,-33.987981683354
1.9420000314713,-34.138787546694
1.9440000057220,-34.276388076230
1.9459999799728,-34.401319212059
1.9479999542236,-34.514361231309
1.9500000476837,-34.616471225137
1.9520000219345,-34.708689045564
1.9539999961853,-34.792050292920
1.9559999704361,-34.867484494248
1.9579999446869,-34.935725094830
1.9600000381470,-34.997233654552
1.9620000123978,-35.052119613285
1.9639999866486,-35.100088896632
1.9659999608994,-35.140400055588
1.9680000543594,-35.171845285509
1.9700000286102,-35.192752271690
1.9720000028610,-35.201029810424
1.9739999771118,-35.194227524229
1.9759999513626,-35.169659250776
1.9780000448227,-35.124547349336
1.9800000190735,-35.056214015347
1.9819999933243,-34.962285409842
1.9839999675751,-34.840902608653
1.9859999418259,-34.690899316589
1.9880000352859,-34.511943983214
1.9900000095367,-34.304587336591
1.9919999837875,-34.070260731164
1.9939999580383,-33.811172764712
1.9960000514984,-33.530160018406
1.9980000257492,-33.230499217836
2.0000000000000,-32.915716637647
2.0020000934601,-32.589401465893
2.0039999485016,-32.255057410810
2.0060000419617,-31.915986481247
2.0079998970032,-31.575210577968
2.0099999904633,-31.235426536619
2.0120000839233,-30.898993986951
2.0139999389648,-30.567935183041
2.0160000324249,-30.243953889369
2.0179998874664,-29.928464355285
2.0199999809265,-29.622617660599
2.0220000743866,-29.327338551184
2.0239999294281,-29.043348348413
2.0260000228882,-28.771202679662
2.0280001163483,-28.511308587786
2.0299999713898,-28.263949985046
2.0320000648499,-28.029310186188
2.0339999198914,-27.807482250872
2.0360000133514,-27.598487258828
2.0380001068115,-27.402283360893
2.0399999618530,-27.218775242429
2.0420000553131,-27.047823159237
2.0439999103546,-26.889247780694
2.0460000038147,-26.742832237245
2.0480000972748,-26.608329582848
2.0499999523163,-26.485464020513
2.0520000457764,-26.373932518949
2.0539999008179,-26.273402420648
2.0559999942780,-26.183519782151
2.0580000877380,-26.103901787309
2.0599999427795,-26.034141607725
2.0620000362396,-25.973804367022
2.0639998912811,-25.922431962285
2.0659999847412,-25.879535775629
2.0680000782013,-25.844603483358
2.0699999332428,-25.817093628047
2.0720000267029,-25.796438867397
2.0739998817444,-25.782048075207
2.0759999752045,-25.773303071263
2.0780000686646,-25.769566403220
2.0799999237061,-25.770182044752
2.0820000171661,-25.774478330610
2.0840001106262,-25.781776369809
2.0859999656677,-25.791392878806
2.0880000591278,-25.802648598504
2.0899999141693,-25.814876858404
2.0920000076294,-25.827433538664
2.0940001010895,-25.839703563446
2.0959999561310,-25.851111600136
2.0980000495911,-25.861131552662
2.0999999046326,-25.869299930125
2.1019999980927,-25.875216407542
2.1040000915527,-25.878558293316
2.1059999465942,-25.879079512616
2.1080000400543,-25.876620575280
2.1099998950958,-25.871106676938
2.1119999885559,-25.862546428989
2.1140000820160,-25.851029227244
2.1159999370575,-25.836721245164
2.1180000305176,-25.819859576544
2.1199998855591,-25.800740262236
2.1219999790192,-25.779711073801
2.1240000724792,-25.757161921575
2.1259999275208,-25.733511162118
2.1280000209808,-25.709195397972
2.1300001144409,-25.684663042558
2.1319999694824,-25.660360503435
2.1340000629425,-25.636721649263
2.1359999179840,-25.614163219269
2.1380000114441,-25.593074797452
2.1400001049042,-25.573817983825
2.1419999599457,-25.556714369864
2.1440000534058,-25.542044623336
2.1459999084473,-25.530043603315
2.1480000019073,-25.520902891845
2.1500000953674,-25.514764023712
2.1519999504089,-25.511719637424
2.1540000438690,-25.511811234750
2.1559998989105,-25.515033640413
2.1579999923706,-25.521331752410
2.1600000858307,-25.530605160369
2.1619999408722,-25.542706298067
2.1640000343323,-25.557446174216
2.1659998893738,-25.574597598859
2.1679999828339,-25.593895490291
2.1700000762939,-25.615043370995
2.1719999313354,-25.637717851900
2.1740000247955,-25.661574364334
2.1760001182556,-25.686251568003
2.1779999732971,-25.711379697700
2.1800000667572,-25.736584850916
2.1819999217987,-25.761499761298
2.1840000152588,-25.785767065578
2.1860001087189,-25.809050597153
2.1879999637604,-25.831040083392
2.1900000572205,-25.851458378306
2.1919999122620,-25.870068843761
2.1940000057220,-25.886679872923
2.1960000991821,-25.901148516925
2.1979999542236,-25.913384312040
2.2000000476837,-25.923353533461
2.2019999027252,-25.931074274041
2.2039999961853,-25.936619322298
2.2060000896454,-25.940111600624
2.2079999446869,-25.941724675791
