frequency,refcoef
1.0000000000000,-15.112306700313
1.0019999742508,-15.057773792570
1.0039999485016,-15.007050285388
1.0060000419617,-14.960124549567
1.0080000162125,-14.916977861708
1.0099999904633,-14.877579536500
1.0119999647141,-14.841891744906
1.0140000581741,-14.809867448342
1.0160000324249,-14.781448745408
1.0180000066757,-14.756570760294
1.0199999809265,-14.735157344467
1.0219999551773,-14.717124275007
1.0240000486374,-14.702376727110
1.0260000228882,-14.690812097980
1.0279999971390,-14.682317968858
1.0299999713898,-14.676774606878
1.0319999456406,-14.674049726847
1.0340000391006,-14.674004915305
1.0360000133514,-14.676494642555
1.0379999876022,-14.681361568297
1.0399999618530,-14.688443914627
1.0420000553131,-14.697571067521
1.0440000295639,-14.708566357785
1.0460000038147,-14.721246510075
1.0479999780655,-14.735423621467
1.0499999523163,-14.750905311608
1.0520000457764,-14.767496495670
1.0540000200272,-14.785000067880
1.0559999942780,-14.803215359779
1.0579999685287,-14.821946413689
1.0599999427795,-14.840994187336
1.0620000362396,-14.860168639290
1.0640000104904,-14.879279380873
1.0659999847412,-14.898144571766
1.0679999589920,-14.916592636388
1.0700000524521,-14.934457882600
1.0720000267029,-14.951589361780
1.0740000009537,-14.967847327969
1.0759999752045,-14.983105327214
1.0779999494553,-14.997256866956
1.0800000429153,-15.010206616156
1.0820000171661,-15.021881655007
1.0839999914169,-15.032225595639
1.0859999656677,-15.041200520346
1.0880000591278,-15.048789934396
1.0900000333786,-15.054993563256
1.0920000076294,-15.059833565745
1.0939999818802,-15.063348615082
1.0959999561310,-15.065596400698
1.0980000495911,-15.066649875650
1.1000000238419,-15.066600110815
1.1019999980927,-15.065551090546
1.1039999723434,-15.063619510776
1.1059999465942,-15.060935970326
1.1080000400543,-15.057637749329
1.1100000143051,-15.053871666457
1.1119999885559,-15.049791316429
1.1139999628067,-15.045553176400
1.1160000562668,-15.041317683063
1.1180000305176,-15.037247532338
1.1200000047684,-15.033502844812
1.1219999790192,-15.030243848770
1.1239999532700,-15.027625994094
1.1260000467300,-15.025802149722
1.1280000209808,-15.024916524262
1.1299999952316,-15.025111096956
1.1319999694824,-15.026515310503
1.1339999437332,-15.029252939772
1.1360000371933,-15.033438809287
1.1380000114441,-15.039176844689
1.1399999856949,-15.046562449580
1.1419999599457,-15.055677836175
1.1440000534058,-15.066597549629
1.1460000276566,-15.079380924405
1.1480000019073,-15.094080859266
1.1499999761581,-15.110734477068
1.1519999504089,-15.129371023022
1.1540000438690,-15.150005786807
1.1560000181198,-15.172644579076
1.1579999923706,-15.197281262432
1.1599999666214,-15.223899548836
1.1619999408722,-15.252471796339
1.1640000343323,-15.282962376919
1.1660000085831,-15.315322174946
1.1679999828339,-15.349496643904
1.1699999570847,-15.385419125860
1.1720000505447,-15.423017009686
1.1740000247955,-15.462210117540
1.1759999990463,-15.502910707340
1.1779999732971,-15.545023334162
1.1799999475479,-15.588450562586
1.1820000410080,-15.633090147881
1.1840000152588,-15.678832503976
1.1859999895096,-15.725571647777
1.1879999637604,-15.773196181230
1.1900000572205,-15.821593869277
1.1920000314713,-15.870657998570
1.1940000057220,-15.920280459742
1.1959999799728,-15.970356625046
1.1979999542236,-16.020788521457
1.2000000476837,-16.071482711928
1.2020000219345,-16.122350420666
1.2039999961853,-16.173315761352
1.2059999704361,-16.224308020303
1.2079999446869,-16.275268301738
1.2100000381470,-16.326146991450
1.2120000123978,-16.376908275487
1.2139999866486,-16.427527149227
1.2159999608994,-16.477991512354
1.2180000543594,-16.528301587870
1.2200000286102,-16.578471543275
1.2220000028610,-16.628528926479
1.2239999771118,-16.678514029325
1.2259999513626,-16.728477766041
1.2280000448227,-16.778486770249
1.2300000190735,-16.828616608802
1.2319999933243,-16.878955290209
1.2339999675751,-16.929597654188
1.2359999418259,-16.980651329049
1.2380000352859,-17.032227551653
1.2400000095367,-17.084448293515
1.2419999837875,-17.137438285248
1.2439999580383,-17.191327351589
1.2460000514984,-17.246249490118
1.2480000257492,-17.302335340189
1.2500000000000,-17.359724966288
1.2519999742508,-17.418547911516
1.2539999485016,-17.478938677014
1.2560000419617,-17.541024369333
1.2580000162125,-17.604929629314
1.2599999904633,-17.670773461796
1.2619999647141,-17.738668833460
1.2640000581741,-17.808719609192
1.2660000324249,-17.881021777846
1.2680000066757,-17.955663436722
1.2699999809265,-18.032717240926
1.2719999551773,-18.112252557624
1.2740000486374,-18.194319672609
1.2760000228882,-18.278960589794
1.2779999971390,-18.366200894747
1.2799999713898,-18.456054247112
1.2819999456406,-18.548518244395
1.2840000391006,-18.643574938251
1.2860000133514,-18.741191856775
1.2879999876022,-18.841317855714
1.2899999618530,-18.943887481708
1.2920000553131,-19.048815193951
1.2940000295639,-19.156000990458
1.2960000038147,-19.265324164827
1.2979999780655,-19.376648552580
1.2999999523163,-19.489819509440
1.3020000457764,-19.604664884187
1.3040000200272,-19.720996417440
1.3059999942780,-19.838608756520
1.3079999685287,-19.957282643237
1.3099999427795,-20.076783867896
1.3120000362396,-20.196865539116
1.3140000104904,-20.317272587699
1.3159999847412,-20.437737736887
1.3179999589920,-20.557991784476
1.3200000524521,-20.677759737948
1.3220000267029,-20.796768402649
1.3240000009537,-20.914746995838
1.3259999752045,-21.031431548196
1.3279999494553,-21.146569383342
1.3300000429153,-21.259922098516
1.3320000171661,-21.371272576806
1.3339999914169,-21.480422771633
1.3359999656677,-21.587200613446
1.3380000591278,-21.691466430058
1.3400000333786,-21.793110205172
1.3420000076294,-21.892056364589
1.3439999818802,-21.988265973180
1.3459999561310,-22.081739590930
1.3480000495911,-22.172513982798
1.3500000238419,-22.260661875063
1.3519999980927,-22.346295785676
1.3539999723434,-22.429562182861
1.3559999465942,-22.510638432704
1.3580000400543,-22.589734122924
1.3600000143051,-22.667085233924
1.3619999885559,-22.742948432922
1.3639999628067,-22.817602259212
1.3660000562668,-22.891336309948
1.3680000305176,-22.964453379814
1.3700000047684,-23.037261099232
1.3719999790192,-23.110069204704
1.3739999532700,-23.183186576697
1.3760000467300,-23.256913043319
1.3780000209808,-23.331541507742
1.3799999952316,-23.407352925003
1.3819999694824,-23.484607817670
1.3839999437332,-23.563553656031
1.3860000371933,-23.644414206378
1.3880000114441,-23.727386595096
1.3899999856949,-23.812646663358
1.3919999599457,-23.900341118356
1.3940000534058,-23.990584005336
1.3960000276566,-24.083464157064
1.3980000019073,-24.179032156990
1.3999999761581,-24.277307396475
1.4019999504089,-24.378273434412
1.4040000438690,-24.481877362584
1.4060000181198,-24.588030333079
1.4079999923706,-24.696603724315
1.4099999666214,-24.807429922885
1.4119999408722,-24.920305268302
1.4140000343323,-25.034983961406
1.4160000085831,-25.151184956661
1.4179999828339,-25.268588473163
1.4199999570847,-25.386838691859
1.4220000505447,-25.505547249438
1.4240000247955,-25.624293461401
1.4259999990463,-25.742635516377
1.4279999732971,-25.860102716506
1.4299999475479,-25.976216005553
1.4320000410080,-26.090482202947
1.4340000152588,-26.202410291549
1.4359999895096,-26.311513669835
1.4379999637604,-26.417325795329
1.4400000572205,-26.519405693981
1.4420000314713,-26.617347817003
1.4440000057220,-26.710793721370
1.4459999799728,-26.799438493437
1.4479999542236,-26.883042462160
1.4500000476837,-26.961437412488
1.4520000219345,-27.034527340808
1.4539999961853,-27.102300515114
1.4559999704361,-27.164820291748
1.4579999446869,-27.222234059843
1.4600000381470,-27.274766891764
1.4620000123978,-27.322714154912
1.4639999866486,-27.366438527332
1.4659999608994,-27.406360261911
1.4680000543594,-27.442950306570
1.4700000286102,-27.476718077683
1.4720000028610,-27.508203852798
1.4739999771118,-27.537966015954
1.4759999513626,-27.566575243729
1.4780000448227,-27.594602199761
1.4800000190735,-27.622612167484
1.4819999933243,-27.651152581703
1.4839999675751,-27.680752509452
1.4859999418259,-27.711913150663
1.4880000352859,-27.745103482280
1.4900000095367,-27.780756195043
1.4919999837875,-27.819267972924
1.4939999580383,-27.860989522997
1.4960000514984,-27.906228448738
1.4980000257492,-27.955246448281
1.5000000000000,-28.008258980940
1.5019999742508,-28.065428242710
1.5039999485016,-28.126868567254
1.5060000419617,-28.192640080895
1.5080000162125,-28.262752164113
1.5099999904633,-28.337155120891
1.5119999647141,-28.415748005488
1.5140000581741,-28.498367447809
1.5160000324249,-28.584793731823
1.5180000066757,-28.674746808524
1.5199999809265,-28.767886907182
1.5219999551773,-28.863809649867
1.5240000486374,-28.962052045661
1.5260000228882,-29.062091578393
1.5279999971390,-29.163347052471
1.5299999713898,-29.265182956361
1.5319999456406,-29.366913856514
1.5340000391006,-29.467814047068
1.5360000133514,-29.567120206013
1.5379999876022,-29.664051281482
1.5399999618530,-29.757815289339
1.5420000553131,-29.847625308931
1.5440000295639,-29.932717467650
1.5460000038147,-30.012371355494
1.5479999780655,-30.085922470857
1.5499999523163,-30.152791390977
1.5520000457764,-30.212490436545
1.5540000200272,-30.264647271317
1.5559999942780,-30.309013334190
1.5579999685287,-30.345476016341
1.5599999427795,-30.374061077738
1.5620000362396,-30.394934470573
1.5640000104904,-30.408396205115
1.5659999847412,-30.414874958011
1.5679999589920,-30.414910097502
1.5700000524521,-30.409141319739
1.5720000267029,-30.398287610126
1.5740000009537,-30.383131940590
1.5759999752045,-30.364499819897
1.5779999494553,-30.343238734642
1.5800000429153,-30.320207760523
1.5820000171661,-30.296256947623
1.5839999914169,-30.272215148538
1.5859999656677,-30.248879593063
1.5880000591278,-30.227006946299
1.5900000333786,-30.207302388555
1.5920000076294,-30.190421821810
1.5939999818802,-30.176959867878
1.5959999561310,-30.167452359051
1.5980000495911,-30.162372648908
1.6000000238419,-30.162130968702
1.6019999980927,-30.167076355389
1.6039999723434,-30.177489485004
1.6059999465942,-30.193591723367
1.6080000400543,-30.215538021190
1.6100000143051,-30.243420777210
1.6119999885559,-30.277264126853
1.6139999628067,-30.317029464205
1.6160000562668,-30.362610028067
1.6180000305176,-30.413830567293
1.6200000047684,-30.470444335873
1.6219999790192,-30.532131695772
1.6239999532700,-30.598501323886
1.6260000467300,-30.669083126999
1.6280000209808,-30.743330312971
1.6299999952316,-30.820619224683
1.6319999694824,-30.900246458213
1.6339999437332,-30.981436206508
1.6360000371933,-31.063338095652
1.6380000114441,-31.145041914629
1.6399999856949,-31.225577137962
1.6419999599457,-31.303934505859
1.6440000534058,-31.379075906157
1.6460000276566,-31.449957753997
1.6480000019073,-31.515552126398
1.6499999761581,-31.574870473883
1.6519999504089,-31.626996797225
1.6540000438690,-31.671107151995
1.6560000181198,-31.706504171593
1.6579999923706,-31.732638442608
1.6599999666214,-31.749128640722
1.6619999408722,-31.755778596973
1.6640000343323,-31.752583594327
1.6660000085831,-31.739732286382
1.6679999828339,-31.717600879992
1.6699999570847,-31.686737613127
1.6720000505447,-31.647848113490
1.6740000247955,-31.601765161405
1.6759999990463,-31.549429419076
1.6779999732971,-31.491854436126
1.6799999475479,-31.430105998511
1.6820000410080,-31.365271447684
1.6840000152588,-31.298439217492
1.6859999895096,-31.230674864456
1.6879999637604,-31.163009955834
1.6900000572205,-31.096424757259
1.6920000314713,-31.031837509656
1.6940000057220,-30.970100125369
1.6959999799728,-30.911992302947
1.6979999542236,-30.858218248679
1.7000000476837,-30.809406811095
1.7020000219345,-30.766112136579
1.7039999961853,-30.728811545786
1.7059999704361,-30.697909390664
1.7079999446869,-30.673739243241
1.7100000381470,-30.656563472375
1.7120000123978,-30.646574244916
1.7139999866486,-30.643894441942
1.7159999608994,-30.648578786806
1.7180000543594,-30.660609954602
1.7200000286102,-30.679902258252
1.7220000028610,-30.706294539446
1.7239999771118,-30.739550727833
1.7259999513626,-30.779354680953
1.7280000448227,-30.825306719058
1.7300000190735,-30.876921088625
1.7319999933243,-30.933618965377
1.7339999675751,-30.994728966793
1.7359999418259,-31.059479800946
1.7380000352859,-31.127002072803
1.7400000095367,-31.196324197254
1.7419999837875,-31.266383741882
1.7439999580383,-31.336023375995
1.7460000514984,-31.404010318668
1.7480000257492,-31.469046958358
1.7500000000000,-31.529794308178
1.7519999742508,-31.584898884838
1.7539999485016,-31.633023796654
1.7560000419617,-31.672886702674
1.7580000162125,-31.703301269510
1.7599999904633,-31.723214533186
1.7619999647141,-31.731752353772
1.7640000581741,-31.728250076447
1.7660000324249,-31.712284393537
1.7680000066757,-31.683694102729
1.7699999809265,-31.642581559407
1.7719999551773,-31.589317219687
1.7740000486374,-31.524517857918
1.7760000228882,-31.449025378060
1.7779999971390,-31.363869775768
1.7799999713898,-31.270234019321
1.7819999456406,-31.169408432871
1.7840000391006,-31.062755703360
1.7860000133514,-30.951668631688
1.7879999876022,-30.837537629638
1.7899999618530,-30.721725352183
1.7920000553131,-30.605538663032
1.7940000295639,-30.490214243286
1.7960000038147,-30.376907871739
1.7979999780655,-30.266683533779
1.7999999523163,-30.160514291499
1.8020000457764,-30.059276640002
1.8040000200272,-29.963756518763
1.8059999942780,-29.874647281209
1.8079999685287,-29.792558278396
1.8099999427795,-29.718017826164
1.8120000362396,-29.651476420795
1.8140000104904,-29.593309283845
1.8159999847412,-29.543825237611
1.8179999589920,-29.503266036519
1.8200000524521,-29.471804867282
1.8220000267029,-29.449556891462
1.8240000009537,-29.436566291449
1.8259999752045,-29.432817980653
1.8279999494553,-29.438222011845
1.8300000429153,-29.452619960217
1.8320000171661,-29.475772995056
1.8339999914169,-29.507358991136
1.8359999656677,-29.546961348043
1.8380000591278,-29.594057919466
1.8400000333786,-29.648016388992
1.8420000076294,-29.708077640360
1.8439999818802,-29.773343505992
1.8459999561310,-29.842769449352
1.8480000495911,-29.915151110365
1.8500000238419,-29.989118325677
1.8519999980927,-30.063129227039
1.8539999723434,-30.135480177992
1.8559999465942,-30.204308769794
1.8580000400543,-30.267619545626
1.8600000143051,-30.323318005694
1.8619999885559,-30.369260018702
1.8639999628067,-30.403308916208
1.8660000562668,-30.423412661353
1.8680000305176,-30.427686744774
1.8700000047684,-30.414496351313
1.8719999790192,-30.382541715749
1.8739999532700,-30.330926359007
1.8760000467300,-30.259209476080
1.8780000209808,-30.167429857451
1.8799999952316,-30.056104031342
1.8819999694824,-29.926193032790
1.8839999437332,-29.779048401750
1.8860000371933,-29.616343063957
1.8880000114441,-29.439980878275
1.8899999856949,-29.252014277955
1.8919999599457,-29.054568048456
1.8940000534058,-28.849761130555
1.8960000276566,-28.639654656756
1.8980000019073,-28.426204795020
1.8999999761581,-28.211232527859
1.9019999504089,-27.996404484282
1.9040000438690,-27.783227358778
1.9060000181198,-27.573041552668
1.9079999923706,-27.367033395697
1.9099999666214,-27.166239120251
1.9119999408722,-26.971558798096
1.9140000343323,-26.783767816077
1.9160000085831,-26.603534101165
1.9179999828339,-26.431427425280
1.9199999570847,-26.267931473570
1.9220000505447,-26.113461594833
1.9240000247955,-25.968369128370
1.9259999990463,-25.832952048509
1.9279999732971,-25.707467245819
1.9299999475479,-25.592135776976
1.9320000410080,-25.487150000490
1.9340000152588,-25.392676662799
1.9359999895096,-25.308869320491
1.9379999637604,-25.235866116817
1.9400000572205,-25.173796891437
1.9420000314713,-25.122786732917
1.9440000057220,-25.082958112132
1.9459999799728,-25.054435964510
1.9479999542236,-25.037346494914
1.9500000476837,-25.031826072694
1.9520000219345,-25.038015396013
1.9539999961853,-25.056071322353
1.9559999704361,-25.086158580234
1.9579999446869,-25.128462403173
1.9600000381470,-25.183181271268
1.9620000123978,-25.250537628101
1.9639999866486,-25.330775440721
1.9659999608994,-25.424164318445
1.9680000543594,-25.531002218956
1.9700000286102,-25.651618400075
1.9720000028610,-25.786380622540
1.9739999771118,-25.935691760633
1.9759999513626,-26.100005594208
1.9780000448227,-26.279820051923
1.9800000190735,-26.475692843389
1.9819999933243,-26.688247007884
1.9839999675751,-26.918174051667
1.9859999418259,-27.166249714863
1.9880000352859,-27.433344699869
1.9900000095367,-27.720437527560
1.9919999837875,-28.028631280331
1.9939999580383,-28.359173418419
1.9960000514984,-28.713481105299
1.9980000257492,-29.093168955333
2.0000000000000,-29.500085000612
2.0020000934601,-29.936352679941
2.0039999485016,-30.404427823854
2.0060000419617,-30.907156867030
2.0079998970032,-31.447863606246
2.0099999904633,-32.030440962135
2.0120000839233,-32.659477819441
2.0139999389648,-33.340392594114
2.0160000324249,-34.079593707459
2.0179998874664,-34.884640135783
2.0199999809265,-35.764333686931
2.0220000743866,-36.728624907628
2.0239999294281,-37.787946163412
2.0260000228882,-38.951119740713
2.0280001163483,-40.219698410787
2.0299999713898,-41.573995094604
2.0320000648499,-42.942157655778
2.0339999198914,-44.148414434159
2.0360000133514,-44.890577793515
2.0380001068115,-44.894514199156
2.0399999618530,-44.192397389408
2.0420000553131,-43.084780828905
2.0439999103546,-41.855841266832
2.0460000038147,-40.659249890623
2.0480000972748,-39.554471385914
2.0499999523163,-38.555861170278
2.0520000457764,-37.659911931319
2.0539999008179,-36.857253382475
2.0559999942780,-36.137440466381
2.0580000877380,-35.490689764807
2.0599999427795,-34.908400378684
2.0620000362396,-34.383204428258
2.0639998912811,-33.908849463126
2.0659999847412,-33.480030508895
2.0680000782013,-33.092245203184
2.0699999332428,-32.741645745401
2.0720000267029,-32.424923713945
2.0739998817444,-32.139216952846
2.0759999752045,-31.882029885010
2.0780000686646,-31.651164627559
2.0799999237061,-31.444671781829
2.0820000171661,-31.260804429059
2.0840001106262,-31.097981081832
2.0859999656677,-30.954756417748
2.0880000591278,-30.829792362164
2.0899999141693,-30.721834986977
2.0920000076294,-30.629700859504
2.0940001010895,-30.552250114449
2.0959999561310,-30.488378943688
2.0980000495911,-30.437002451787
2.0999999046326,-30.397044435711
2.1019999980927,-30.367426351671
2.1040000915527,-30.347059500097
2.1059999465942,-30.334836595009
2.1080000400543,-30.329627728407
2.1099998950958,-30.330278443404
2.1119999885559,-30.335605777506
2.1140000820160,-30.344404115766
2.1159999370575,-30.355447190825
2.1180000305176,-30.367497029913
2.1199998855591,-30.379318099351
2.1219999790192,-30.389685254531
2.1240000724792,-30.397409539363
2.1259999275208,-30.401352592457
2.1280000209808,-30.400450975942
2.1300001144409,-30.393741168831
2.1319999694824,-30.380377037184
2.1340000629425,-30.359656641063
2.1359999179840,-30.331035096420
2.1380000114441,-30.294141398666
2.1400001049042,-30.248784118512
2.1419999599457,-30.194954750711
2.1440000534058,-30.132822333149
2.1459999084473,-30.062722760338
2.1480000019073,-29.985143906188
2.1500000953674,-29.900704276305
2.1519999504089,-29.810131067412
2.1540000438690,-29.714238549190
2.1559998989105,-29.613895301039
2.1579999923706,-29.510009865726
2.1600000858307,-29.403502187432
2.1619999408722,-29.295288199196
2.1640000343323,-29.186259614294
2.1659998893738,-29.077275735196
2.1679999828339,-28.969148616941
2.1700000762939,-28.862633123887
2.1719999313354,-28.758432025607
2.1740000247955,-28.657181825901
2.1760001182556,-28.559458976736
2.1779999732971,-28.465773379571
2.1800000667572,-28.376575702913
2.1819999217987,-28.292257858174
2.1840000152588,-28.213151614037
2.1860001087189,-28.139534651694
2.1879999637604,-28.071634813209
2.1900000572205,-28.009627536779
2.1919999122620,-27.953642262220
2.1940000057220,-27.903766120466
2.1960000991821,-27.860041918672
2.1979999542236,-27.822472065383
2.2000000476837,-27.791024047673
2.2019999027252,-27.765621525261
2.2039999961853,-27.746159323192
2.2060000896454,-27.732491796662
2.2079999446869,-27.724440843250
