frequency,refcoef
1.0000000000000,-18.686497614826
1.0019999742508,-18.660633213785
1.0039999485016,-18.637302972615
1.0060000419617,-18.616423016034
1.0080000162125,-18.597909570301
1.0099999904633,-18.581678174835
1.0119999647141,-18.567640779159
1.0140000581741,-18.555709604509
1.0160000324249,-18.545796758982
1.0180000066757,-18.537812093453
1.0199999809265,-18.531664251248
1.0219999551773,-18.527262069828
1.0240000486374,-18.524513498692
1.0260000228882,-18.523326279295
1.0279999971390,-18.523606985752
1.0299999713898,-18.525264737147
1.0319999456406,-18.528204699331
1.0340000391006,-18.532337072378
1.0360000133514,-18.537567562629
1.0379999876022,-18.543808422767
1.0399999618530,-18.550968099327
1.0420000553131,-18.558960010689
1.0440000295639,-18.567697013084
1.0460000038147,-18.577095021855
1.0479999780655,-18.587072364076
1.0499999523163,-18.597549617221
1.0520000457764,-18.608450295226
1.0540000200272,-18.619700836835
1.0559999942780,-18.631231461870
1.0579999685287,-18.642976205470
1.0599999427795,-18.654873780475
1.0620000362396,-18.666864857644
1.0640000104904,-18.678896873800
1.0659999847412,-18.690919827886
1.0679999589920,-18.702891551531
1.0700000524521,-18.714771454790
1.0720000267029,-18.726525705641
1.0740000009537,-18.738125498836
1.0759999752045,-18.749547663435
1.0779999494553,-18.760772790748
1.0800000429153,-18.771788509322
1.0820000171661,-18.782586558736
1.0839999914169,-18.793163745959
1.0859999656677,-18.803521472503
1.0880000591278,-18.813666759260
1.0900000333786,-18.823610719827
1.0920000076294,-18.833370541750
1.0939999818802,-18.842965212369
1.0959999561310,-18.852419024416
1.0980000495911,-18.861759343343
1.1000000238419,-18.871018231509
1.1019999980927,-18.880230583113
1.1039999723434,-18.889433300114
1.1059999465942,-18.898665823789
1.1080000400543,-18.907972201168
1.1100000143051,-18.917395005751
1.1119999885559,-18.926982170147
1.1139999628067,-18.936779216602
1.1160000562668,-18.946836531839
1.1180000305176,-18.957202391749
1.1200000047684,-18.967927105633
1.1219999790192,-18.979061875956
1.1239999532700,-18.990656871662
1.1260000467300,-19.002761734563
1.1280000209808,-19.015427949763
1.1299999952316,-19.028703364843
1.1319999694824,-19.042638875917
1.1339999437332,-19.057280962716
1.1360000371933,-19.072677671059
1.1380000114441,-19.088875082653
1.1399999856949,-19.105917300243
1.1419999599457,-19.123847532376
1.1440000534058,-19.142709071646
1.1460000276566,-19.162542391345
1.1480000019073,-19.183386069881
1.1499999761581,-19.205277809249
1.1519999504089,-19.228255190577
1.1540000438690,-19.252351700628
1.1560000181198,-19.277600546210
1.1579999923706,-19.304034028676
1.1599999666214,-19.331681610113
1.1619999408722,-19.360571395828
1.1640000343323,-19.390732390127
1.1660000085831,-19.422188227009
1.1679999828339,-19.454964752615
1.1699999570847,-19.489084530848
1.1720000505447,-19.524568537321
1.1740000247955,-19.561438218697
1.1759999990463,-19.599711941306
1.1779999732971,-19.639408280119
1.1799999475479,-19.680543817345
1.1820000410080,-19.723135410451
1.1840000152588,-19.767196781239
1.1859999895096,-19.812743039216
1.1879999637604,-19.859786037603
1.1900000572205,-19.908337773413
1.1920000314713,-19.958410627880
1.1940000057220,-20.010013960145
1.1959999799728,-20.063159221831
1.1979999542236,-20.117851909573
1.2000000476837,-20.174103409473
1.2020000219345,-20.231919623437
1.2039999961853,-20.291306667900
1.2059999704361,-20.352271325664
1.2079999446869,-20.414819364279
1.2100000381470,-20.478953853666
1.2120000123978,-20.544680010867
1.2139999866486,-20.611999360096
1.2159999608994,-20.680915488457
1.2180000543594,-20.751429461538
1.2200000286102,-20.823541361590
1.2220000028610,-20.897251691212
1.2239999771118,-20.972560087687
1.2259999513626,-21.049462938216
1.2280000448227,-21.127958111206
1.2300000190735,-21.208042544726
1.2319999933243,-21.289709579556
1.2339999675751,-21.372952931707
1.2359999418259,-21.457766801929
1.2380000352859,-21.544141144056
1.2400000095367,-21.632067406998
1.2419999837875,-21.721533076802
1.2439999580383,-21.812525190054
1.2460000514984,-21.905030428014
1.2480000257492,-21.999032566189
1.2500000000000,-22.094513621508
1.2519999742508,-22.191454746661
1.2539999485016,-22.289834524667
1.2560000419617,-22.389630573555
1.2580000162125,-22.490817907881
1.2599999904633,-22.593370847301
1.2619999647141,-22.697259483749
1.2640000581741,-22.802453147352
1.2660000324249,-22.908921158612
1.2680000066757,-23.016626853013
1.2699999809265,-23.125533472115
1.2719999551773,-23.235604579642
1.2740000486374,-23.346797227910
1.2760000228882,-23.459069192281
1.2779999971390,-23.572376281017
1.2799999713898,-23.686672406226
1.2819999456406,-23.801907215860
1.2840000391006,-23.918032799159
1.2860000133514,-24.034994141702
1.2879999876022,-24.152741906791
1.2899999618530,-24.271218866247
1.2920000553131,-24.390368977461
1.2940000295639,-24.510136179300
1.2960000038147,-24.630461894074
1.2979999780655,-24.751286808982
1.2999999523163,-24.872553663157
1.3020000457764,-24.994200348541
1.3040000200272,-25.116169706101
1.3059999942780,-25.238399881005
1.3079999685287,-25.360834142855
1.3099999427795,-25.483414476013
1.3120000362396,-25.606081308811
1.3140000104904,-25.728780716107
1.3159999847412,-25.851456402775
1.3179999589920,-25.974057181434
1.3200000524521,-26.096531064790
1.3220000267029,-26.218830143755
1.3240000009537,-26.340906441963
1.3259999752045,-26.462717789372
1.3279999494553,-26.584222283872
1.3300000429153,-26.705381665374
1.3320000171661,-26.826160608377
1.3339999914169,-26.946527870333
1.3359999656677,-27.066452012336
1.3380000591278,-27.185908715921
1.3400000333786,-27.304874810817
1.3420000076294,-27.423329452641
1.3439999818802,-27.541256187040
1.3459999561310,-27.658641548668
1.3480000495911,-27.775470719197
1.3500000238419,-27.891737656621
1.3519999980927,-28.007433410228
1.3539999723434,-28.122553707953
1.3559999465942,-28.237095016651
1.3580000400543,-28.351052656837
1.3600000143051,-28.464427898555
1.3619999885559,-28.577218162782
1.3639999628067,-28.689424582455
1.3660000562668,-28.801045633418
1.3680000305176,-28.912081091115
1.3700000047684,-29.022528331772
1.3719999790192,-29.132385407857
1.3739999532700,-29.241648241260
1.3760000467300,-29.350310566890
1.3780000209808,-29.458366134211
1.3799999952316,-29.565803712898
1.3819999694824,-29.672612414220
1.3839999437332,-29.778776255034
1.3860000371933,-29.884278694638
1.3880000114441,-29.989099810018
1.3899999856949,-30.093216946507
1.3919999599457,-30.196605433451
1.3940000534058,-30.299237291960
1.3960000276566,-30.401081147378
1.3980000019073,-30.502105276395
1.3999999761581,-30.602275082342
1.4019999504089,-30.701554711668
1.4040000438690,-30.799904679830
1.4060000181198,-30.897287687464
1.4079999923706,-30.993663093238
1.4099999666214,-31.088992394421
1.4119999408722,-31.183235415615
1.4140000343323,-31.276353351637
1.4160000085831,-31.368308874225
1.4179999828339,-31.459065618847
1.4199999570847,-31.548590224125
1.4220000505447,-31.636851850522
1.4240000247955,-31.723822654395
1.4259999990463,-31.809478315118
1.4279999732971,-31.893798599221
1.4299999475479,-31.976767693657
1.4320000410080,-32.058373538687
1.4340000152588,-32.138610544053
1.4359999895096,-32.217476151289
1.4379999637604,-32.294974114482
1.4400000572205,-32.371113004521
1.4420000314713,-32.445906608253
1.4440000057220,-32.519372517828
1.4459999799728,-32.591532928731
1.4479999542236,-32.662416035166
1.4500000476837,-32.732055161220
1.4520000219345,-32.800481219814
1.4539999961853,-32.867735767965
1.4559999704361,-32.933857672025
1.4579999446869,-32.998890912106
1.4600000381470,-33.062879076841
1.4620000123978,-33.125865969073
1.4639999866486,-33.187898692468
1.4659999608994,-33.249021835158
1.4680000543594,-33.309280043611
1.4700000286102,-33.368714098026
1.4720000028610,-33.427366461225
1.4739999771118,-33.485272548651
1.4759999513626,-33.542468517125
1.4780000448227,-33.598983384181
1.4800000190735,-33.654844906223
1.4819999933243,-33.710075939325
1.4839999675751,-33.764692215559
1.4859999418259,-33.818707683727
1.4880000352859,-33.872128595121
1.4900000095367,-33.924959765137
1.4919999837875,-33.977197979138
1.4939999580383,-34.028833843925
1.4960000514984,-34.079856447885
1.4980000257492,-34.130249128164
1.5000000000000,-34.179990144165
1.5019999742508,-34.229053596385
1.5039999485016,-34.277412940224
1.5060000419617,-34.325033881973
1.5080000162125,-34.371884146912
1.5099999904633,-34.417928450810
1.5119999647141,-34.463128162496
1.5140000581741,-34.507447299324
1.5160000324249,-34.550847646036
1.5180000066757,-34.593294096481
1.5199999809265,-34.634751981537
1.5219999551773,-34.675188355220
1.5240000486374,-34.714572072954
1.5260000228882,-34.752880247458
1.5279999971390,-34.790090049187
1.5299999713898,-34.826184754204
1.5319999456406,-34.861149411070
1.5340000391006,-34.894981504306
1.5360000133514,-34.927677199010
1.5379999876022,-34.959243443434
1.5399999618530,-34.989689589145
1.5420000553131,-35.019033893600
1.5440000295639,-35.047298909475
1.5460000038147,-35.074511508001
1.5479999780655,-35.100708612840
1.5499999523163,-35.125925184921
1.5520000457764,-35.150208947071
1.5540000200272,-35.173603784665
1.5559999942780,-35.196162724247
1.5579999685287,-35.217938161317
1.5599999427795,-35.238986082760
1.5620000362396,-35.259362795054
1.5640000104904,-35.279126290781
1.5659999847412,-35.298334903943
1.5679999589920,-35.317043198288
1.5700000524521,-35.335305690528
1.5720000267029,-35.353176600358
1.5740000009537,-35.370702197819
1.5759999752045,-35.387927537002
1.5779999494553,-35.404896082795
1.5800000429153,-35.421643554163
1.5820000171661,-35.438198301653
1.5839999914169,-35.454586932200
1.5859999656677,-35.470826971934
1.5880000591278,-35.486930893354
1.5900000333786,-35.502905418227
1.5920000076294,-35.518747496294
1.5939999818802,-35.534452003823
1.5959999561310,-35.550002513401
1.5980000495911,-35.565378869993
1.6000000238419,-35.580555941395
1.6019999980927,-35.595498383908
1.6039999723434,-35.610170358510
1.6059999465942,-35.624528530624
1.6080000400543,-35.638524874626
1.6100000143051,-35.652107630424
1.6119999885559,-35.665224499527
1.6139999628067,-35.677817670905
1.6160000562668,-35.689830089156
1.6180000305176,-35.701203463757
1.6200000047684,-35.711878513144
1.6219999790192,-35.721798891165
1.6239999532700,-35.730910052792
1.6260000467300,-35.739156704594
1.6280000209808,-35.746493347829
1.6299999952316,-35.752872887770
1.6319999694824,-35.758255744643
1.6339999437332,-35.762610322131
1.6360000371933,-35.765906395979
1.6380000114441,-35.768125157969
1.6399999856949,-35.769252249901
1.6419999599457,-35.769280961180
1.6440000534058,-35.768212103468
1.6460000276566,-35.766056162022
1.6480000019073,-35.762827862408
1.6499999761581,-35.758551565783
1.6519999504089,-35.753257724121
1.6540000438690,-35.746982920448
1.6560000181198,-35.739772190944
1.6579999923706,-35.731670978152
1.6599999666214,-35.722734924902
1.6619999408722,-35.713021422437
1.6640000343323,-35.702589382383
1.6660000085831,-35.691502842740
1.6679999828339,-35.679826537620
1.6699999570847,-35.667624084057
1.6720000505447,-35.654961644234
1.6740000247955,-35.641901440111
1.6759999990463,-35.628506445433
1.6779999732971,-35.614836093394
1.6799999475479,-35.600944184369
1.6820000410080,-35.586883708213
1.6840000152588,-35.572699562921
1.6859999895096,-35.558433973096
1.6879999637604,-35.544124066387
1.6900000572205,-35.529794857541
1.6920000314713,-35.515474040891
1.6940000057220,-35.501173404720
1.6959999799728,-35.486905322185
1.6979999542236,-35.472668777810
1.7000000476837,-35.458461169351
1.7020000219345,-35.444269928416
1.7039999961853,-35.430078213658
1.7059999704361,-35.415862015398
1.7079999446869,-35.401591435907
1.7100000381470,-35.387229459601
1.7120000123978,-35.372736980792
1.7139999866486,-35.358072750788
1.7159999608994,-35.343185145161
1.7180000543594,-35.328025997771
1.7200000286102,-35.312542377496
1.7220000028610,-35.296682052393
1.7239999771118,-35.280390849467
1.7259999513626,-35.263617980589
1.7280000448227,-35.246309227638
1.7300000190735,-35.228418996683
1.7319999933243,-35.209900504498
1.7339999675751,-35.190711580182
1.7359999418259,-35.170817315992
1.7380000352859,-35.150186776141
1.7400000095367,-35.128792923643
1.7419999837875,-35.106619050647
1.7439999580383,-35.083654665791
1.7460000514984,-35.059895789457
1.7480000257492,-35.035346227779
1.7500000000000,-35.010018761268
1.7519999742508,-34.983931397951
1.7539999485016,-34.957113030400
1.7560000419617,-34.929596609643
1.7580000162125,-34.901424872335
1.7599999904633,-34.872645616913
1.7619999647141,-34.843312640901
1.7640000581741,-34.813485956833
1.7660000324249,-34.783229897412
1.7680000066757,-34.752611623507
1.7699999809265,-34.721702921459
1.7719999551773,-34.690577798040
1.7740000486374,-34.659307837614
1.7760000228882,-34.627968698520
1.7779999971390,-34.596636249578
1.7799999713898,-34.565380917811
1.7819999456406,-34.534272919593
1.7840000391006,-34.503381180155
1.7860000133514,-34.472767510904
1.7879999876022,-34.442489326959
1.7899999618530,-34.412600796830
1.7920000553131,-34.383145596290
1.7940000295639,-34.354166746033
1.7960000038147,-34.325694961499
1.7979999780655,-34.297755546797
1.7999999523163,-34.270365925262
1.8020000457764,-34.243534092027
1.8040000200272,-34.217260909086
1.8059999942780,-34.191539788063
1.8079999685287,-34.166350764120
1.8099999427795,-34.141671353403
1.8120000362396,-34.117469443641
1.8140000104904,-34.093702355058
1.8159999847412,-34.070321856089
1.8179999589920,-34.047273825169
1.8200000524521,-34.024497172649
1.8220000267029,-34.001924453977
1.8240000009537,-33.979484415573
1.8259999752045,-33.957101354587
1.8279999494553,-33.934696849977
1.8300000429153,-33.912191468270
1.8320000171661,-33.889504261216
1.8339999914169,-33.866553861679
1.8359999656677,-33.843263574621
1.8380000591278,-33.819556479584
1.8400000333786,-33.795362109671
1.8420000076294,-33.770614621381
1.8439999818802,-33.745256438143
1.8459999561310,-33.719236269713
1.8480000495911,-33.692513963333
1.8500000238419,-33.665057304765
1.8519999980927,-33.636848901952
1.8539999723434,-33.607878723246
1.8559999465942,-33.578155721718
1.8580000400543,-33.547697848174
1.8600000143051,-33.516538842737
1.8619999885559,-33.484726240108
1.8639999628067,-33.452322381312
1.8660000562668,-33.419403946653
1.8680000305176,-33.386062683907
1.8700000047684,-33.352402088887
1.8719999790192,-33.318541358018
1.8739999532700,-33.284609299685
1.8760000467300,-33.250750047621
1.8780000209808,-33.217118339271
1.8799999952316,-33.183876416963
1.8819999694824,-33.151199768128
1.8839999437332,-33.119268470488
1.8860000371933,-33.088271362692
1.8880000114441,-33.058406882087
1.8899999856949,-33.029872069606
1.8919999599457,-33.002873812902
1.8940000534058,-32.977621516389
1.8960000276566,-32.954326150997
1.8980000019073,-32.933198774496
1.8999999761581,-32.914457461777
1.9019999504089,-32.898313553693
1.9040000438690,-32.884983761231
1.9060000181198,-32.874682055313
1.9079999923706,-32.867622418694
1.9099999666214,-32.864017086174
1.9119999408722,-32.864077373126
1.9140000343323,-32.868012048725
1.9160000085831,-32.876031000957
1.9179999828339,-32.888339035869
1.9199999570847,-32.905143418362
1.9220000505447,-32.926646709813
1.9240000247955,-32.953053266458
1.9259999990463,-32.984564093386
1.9279999732971,-33.021381327406
1.9299999475479,-33.063706623491
1.9320000410080,-33.111740734421
1.9340000152588,-33.165688405726
1.9359999895096,-33.225750733912
1.9379999637604,-33.292133975208
1.9400000572205,-33.365045086561
1.9420000314713,-33.444695324584
1.9440000057220,-33.531296419714
1.9459999799728,-33.625066210359
1.9479999542236,-33.726225614364
1.9500000476837,-33.835001418933
1.9520000219345,-33.951626953030
1.9539999961853,-34.076338466780
1.9559999704361,-34.209382427790
1.9579999446869,-34.351008355742
1.9600000381470,-34.501478532138
1.9620000123978,-34.661056921467
1.9639999866486,-34.830020603248
1.9659999608994,-35.008652419614
1.9680000543594,-35.197241017640
1.9700000286102,-35.396083377626
1.9720000028610,-35.605481408615
1.9739999771118,-35.825740610679
1.9759999513626,-36.057163289397
1.9780000448227,-36.300052101074
1.9800000190735,-36.554698408203
1.9819999933243,-36.821375063664
1.9839999675751,-37.100327479604
1.9859999418259,-37.391757823954
1.9880000352859,-37.695807150308
1.9900000095367,-38.012531537326
1.9919999837875,-38.341866099289
1.9939999580383,-38.683586317812
1.9960000514984,-39.037249723595
1.9980000257492,-39.402129295413
2.0000000000000,-39.777121435845
2.0020000934601,-40.160640459505
2.0039999485016,-40.550485514942
2.0060000419617,-40.943688845233
2.0079998970032,-41.336354587100
2.0099999904633,-41.723497150732
2.0120000839233,-42.098918479016
2.0139999389648,-42.455169133247
2.0160000324249,-42.783647751172
2.0179998874664,-43.074935534063
2.0199999809265,-43.319385712659
2.0220000743866,-43.507988884530
2.0239999294281,-43.633400575165
2.0260000228882,-43.690943807937
2.0280001163483,-43.679310258281
2.0299999713898,-43.600774483031
2.0320000648499,-43.460823928998
2.0339999198914,-43.267352973372
2.0360000133514,-43.029626837979
2.0380001068115,-42.757283419202
2.0399999618530,-42.459538972498
2.0420000553131,-42.144670563705
2.0439999103546,-41.819757845088
2.0460000038147,-41.490627899327
2.0480000972748,-41.161919280057
2.0499999523163,-40.837226360822
2.0520000457764,-40.519255810138
2.0539999008179,-40.209992318843
2.0559999942780,-39.910845090483
2.0580000877380,-39.622766213739
2.0599999427795,-39.346360813778
2.0620000362396,-39.081964986827
2.0639998912811,-38.829715123032
2.0659999847412,-38.589596286358
2.0680000782013,-38.361480581269
2.0699999332428,-38.145161003904
2.0720000267029,-37.940370447683
2.0739998817444,-37.746802657157
2.0759999752045,-37.564122716062
2.0780000686646,-37.391976728417
2.0799999237061,-37.230000391622
2.0820000171661,-37.077823810889
2.0840001106262,-36.935073922581
2.0859999656677,-36.801379394503
2.0880000591278,-36.676369690588
2.0899999141693,-36.559678316259
2.0920000076294,-36.450944978128
2.0940001010895,-36.349810994209
2.0959999561310,-36.255923706840
2.0980000495911,-36.168936303893
2.0999999046326,-36.088504819202
2.1019999980927,-36.014291951316
2.1040000915527,-35.945961457523
2.1059999465942,-35.883188024550
2.1080000400543,-35.825644431300
2.1099998950958,-35.773009366594
2.1119999885559,-35.724968655374
2.1140000820160,-35.681208694757
2.1159999370575,-35.641423789085
2.1180000305176,-35.605312971023
2.1199998855591,-35.572578725304
2.1219999790192,-35.542932326050
2.1240000724792,-35.516089542868
2.1259999275208,-35.491775407710
2.1280000209808,-35.469721234064
2.1300001144409,-35.449668403707
2.1319999694824,-35.431368978318
2.1340000629425,-35.414584143731
2.1359999179840,-35.399085709499
2.1380000114441,-35.384661538597
2.1400001049042,-35.371110797077
2.1419999599457,-35.358245967414
2.1440000534058,-35.345896848545
2.1459999084473,-35.333907012763
2.1480000019073,-35.322137782653
2.1500000953674,-35.310465180668
2.1519999504089,-35.298785010361
2.1540000438690,-35.287006112681
2.1559998989105,-35.275057624587
2.1579999923706,-35.262884695360
2.1600000858307,-35.250447835219
2.1619999408722,-35.237724547438
2.1640000343323,-35.224706157829
2.1659998893738,-35.211399225708
2.1679999828339,-35.197824609291
2.1700000762939,-35.184012271438
2.1719999313354,-35.170005529086
2.1740000247955,-35.155856880648
2.1760001182556,-35.141628325719
2.1779999732971,-35.127386687834
2.1800000667572,-35.113205714172
2.1819999217987,-35.099162458379
2.1840000152588,-35.085338838678
2.1860001087189,-35.071817959467
2.1879999637604,-35.058681478600
2.1900000572205,-35.046012724714
2.1919999122620,-35.033890972490
2.1940000057220,-35.022395211198
2.1960000991821,-35.011598184298
2.1979999542236,-35.001570379488
2.2000000476837,-34.992374368956
2.2019999027252,-34.984069454724
2.2039999961853,-34.976706282584
2.2060000896454,-34.970330641168
2.2079999446869,-34.964978625701
