frequency,phase
0.60000002384186,88.807786194923
0.60240000486374,81.344513892607
0.60479998588562,74.164449199780
0.60720002651215,67.309998801561
0.60960000753403,60.859098174958
0.61199998855591,54.956511746265
0.61440002918243,49.887714651197
0.61680001020432,46.279957953455
0.61919999122620,45.767415791515
0.62159997224808,53.817614625925
0.62400001287460,89.892249440374
0.62639999389648,137.29027061730
0.62879997491837,151.17633439306
0.63120001554489,152.84390923823
0.63359999656677,150.63116148884
0.63599997758865,146.84017591905
0.63840001821518,142.30148455446
0.64079999923706,137.38248026425
0.64319998025894,132.27105251337
0.64560002088547,127.07463360490
0.64800000190735,121.86054773934
0.65039998292923,116.67475350650
0.65280002355576,111.55120861932
0.65520000457764,106.51695093589
0.65759998559952,101.59516464631
0.66000002622604,96.806853060065
0.66240000724792,92.172084562812
0.66479998826981,87.710652993928
0.66720002889633,83.442439794577
0.66960000991821,79.387643839022
0.67199999094009,75.566583277592
0.67439997196198,71.999304303531
0.67680001258850,68.704844232007
0.67919999361038,65.699974022565
0.68159997463226,62.997533603274
0.68400001525879,60.604360159327
0.68639999628067,58.518739937441
0.68879997730255,56.728002587543
0.69120001792908,55.206428841722
0.69359999895096,53.914333761827
0.69599997997284,52.798880789104
0.69840002059937,51.796980505238
0.70080000162125,50.840044816817
0.70319998264313,49.859909603175
0.70560002326965,48.794632434251
0.70800000429153,47.593124241827
0.71039998531342,46.217773772479
0.71280002593994,44.645029472989
0.71520000696182,42.864309917729
0.71759998798370,40.875862257319
0.72000002861023,38.688224553462
0.72240000963211,36.315753630967
0.72479999065399,33.776463486319
0.72719997167587,31.090379865530
0.72960001230240,28.278255623355
0.73199999332428,25.360722230986
0.73439997434616,22.357706699603
0.73680001497269,19.288109545702
0.73919999599457,16.169584622288
0.74159997701645,13.018460993558
0.74400001764297,9.8497037476595
0.74639999866486,6.6769047716264
0.74879997968674,3.5122872861015
0.75120002031326,0.36670515493664
0.75360000133514,-2.7503636491532
0.75599998235703,-5.8308418575231
0.75840002298355,-8.8680905878454
0.76080000400543,-11.856951400596
0.76319998502731,-14.793810399839
0.76560002565384,-17.676623953933
0.76800000667572,-20.504992708201
0.77039998769760,-23.280110411387
0.77280002832413,-26.004870848977
0.77520000934601,-28.683610598624
0.77759999036789,-31.322192886811
0.77999997138977,-33.927661154982
0.78240001201630,-36.508200269638
0.78479999303818,-39.072649773400
0.78719997406006,-41.630390102291
0.78960001468658,-44.190961989293
0.79199999570847,-46.763704580736
0.79439997673035,-49.357502324223
0.79680001735687,-51.980537459632
0.79919999837875,-54.640068827836
0.80159997940063,-57.342256549074
0.80400002002716,-60.092139948153
0.80640000104904,-62.893529472613
0.80879998207092,-65.749080980024
0.81120002269745,-68.660333092033
0.81360000371933,-71.627796650120
0.81599998474121,-74.651105506566
0.81840002536774,-77.729082967207
0.82080000638962,-80.859877428576
0.82319998741150,-84.041167970176
0.82560002803802,-87.270153418227
0.82800000905991,-90.543781212361
0.83039999008179,-93.858751704552
0.83279997110367,-97.211637813468
0.83520001173019,-100.59898796839
0.83759999275208,-104.01732608217
0.83999997377396,-107.46323785379
0.84240001440048,-110.93340545745
0.84479999542236,-114.42462196113
0.84719997644424,-117.93383114081
0.84960001707077,-121.45815180361
0.85199999809265,-124.99486411136
0.85439997911453,-128.54146887724
0.85680001974106,-132.09559835452
0.85920000076294,-135.65513814776
0.86159998178482,-139.21809108283
0.86400002241135,-142.78272730263
0.86640000343323,-146.34744230133
0.86879998445511,-149.91080861384
0.87120002508163,-153.47155122907
0.87360000610352,-157.02859058078
0.87599998712540,-160.58094359851
0.87840002775192,-164.12776463245
0.88080000877380,-167.66830354044
0.88319998979568,-171.20192859347
0.88559997081757,-174.72809599215
0.88800001144409,-178.24632658637
0.89039999246597,178.24383055239
0.89279997348785,174.74278492270
0.89520001411438,171.25087787889
0.89759999513626,167.76846503425
0.89999997615814,164.29592891107
0.90240001678467,160.83365050634
0.90479999780655,157.38204140742
0.90719997882843,153.94153857132
0.90960001945496,150.51266196684
0.91200000047684,147.09592867548
0.91439998149872,143.69196643561
0.91680002212524,140.30147343397
0.91920000314713,136.92515946134
0.92159998416901,133.56385918875
0.92400002479553,130.21847703651
0.92640000581741,126.88996243220
0.92879998683929,123.57934071434
0.93120002746582,120.28770775740
0.93360000848770,117.01626654111
0.93599998950958,113.76616229153
0.93839997053146,110.53867831259
0.94080001115799,107.33510144373
0.94319999217987,104.15676914191
0.94559997320175,101.00496417159
0.94800001382828,97.881108795537
0.95039999485016,94.786513803071
0.95279997587204,91.722409029882
0.95520001649857,88.690187688031
0.95759999752045,85.691024293561
0.95999997854233,82.726066885652
0.96240001916885,79.796488199414
0.96480000019073,76.903166065634
0.96719998121262,74.047108118625
0.96960002183914,71.229056886322
0.97200000286102,68.449685924828
0.97439998388290,65.709443709245
0.97680002450943,63.008730306503
0.97920000553131,60.347743715620
0.98159998655319,57.726508817130
0.98400002717972,55.144864161883
0.98640000820160,52.602582929878
0.98879998922348,50.099098878620
0.99119997024536,47.633812655514
0.99360001087189,45.205896690056
0.99599999189377,42.814457882416
0.99839997291565,40.458313903799
1.0008000135422,38.136270001644
1.0032000541687,35.846930040668
1.0055999755859,33.588837938997
1.0080000162125,31.360448254556
1.0104000568390,29.160063311615
1.0127999782562,26.986013420582
1.0152000188828,24.836525083482
1.0176000595093,22.709713090316
1.0199999809265,20.603803735979
1.0224000215530,18.516825555724
1.0247999429703,16.446921413707
1.0271999835968,14.392181541050
1.0296000242233,12.350639539108
1.0319999456406,10.320405973567
1.0343999862671,8.2995440882955
1.0368000268936,6.2860863829647
1.0391999483109,4.2781473158947
1.0415999889374,2.2738419683124
1.0440000295639,0.27133974159974
1.0463999509811,-1.7312717065392
1.0487999916077,-3.7356590989511
1.0512000322342,-5.7436254805093
1.0535999536514,-7.7568094939929
1.0559999942780,-9.7766876996333
1.0584000349045,-11.804845126751
1.0607999563217,-13.842508884962
1.0631999969482,-15.890935748951
1.0656000375748,-17.951168535561
1.0679999589920,-20.024131146929
1.0703999996185,-22.110534053863
1.0728000402451,-24.210954720786
1.0751999616623,-26.325799088459
1.0776000022888,-28.455205787199
1.0800000429153,-30.599230154514
1.0823999643326,-32.757706156549
1.0848000049591,-34.930306720937
1.0872000455856,-37.116513683451
1.0895999670029,-39.315669571618
1.0920000076294,-41.527068311585
1.0944000482559,-43.749721715565
1.0967999696732,-45.982730060557
1.0992000102997,-48.224943178748
1.1016000509262,-50.475243712306
1.1039999723434,-52.732487287662
1.1064000129700,-54.995409675699
1.1088000535965,-57.262920703977
1.1111999750137,-59.533851098027
1.1136000156403,-61.807047852284
1.1160000562668,-64.081445478319
1.1183999776840,-66.356117784373
1.1208000183105,-68.630188925836
1.1232000589371,-70.902893170236
1.1255999803543,-73.173573450274
1.1280000209808,-75.441745140628
1.1303999423981,-77.706990340543
1.1327999830246,-79.969095288442
1.1352000236511,-82.227837758580
1.1375999450684,-84.483303498987
1.1399999856949,-86.735571470291
1.1424000263214,-88.984834652095
1.1447999477386,-91.231393180779
1.1471999883652,-93.475574632833
1.1496000289917,-95.717871221663
1.1519999504089,-97.958637312425
1.1543999910355,-100.19836520233
1.1568000316620,-102.43757530239
1.1591999530792,-104.67656511304
1.1615999937057,-106.91566704894
1.1640000343323,-109.15525757155
1.1663999557495,-111.39555972033
1.1687999963760,-113.63657171563
1.1712000370026,-115.87840351557
1.1735999584198,-118.12094624175
1.1759999990463,-120.36398235980
1.1784000396729,-122.60717886355
1.1807999610901,-124.85010392354
1.1832000017166,-127.09231665781
1.1856000423431,-129.33316489990
1.1879999637604,-131.57199561360
1.1904000043869,-133.80808749469
1.1928000450134,-136.04068518482
1.1951999664307,-138.26901846027
1.1976000070572,-140.49233078825
1.2000000476837,-142.71000976364
1.2023999691010,-144.92118519535
1.2048000097275,-147.12537423061
1.2072000503540,-149.32217877415
1.2095999717712,-151.51095601663
1.2120000123978,-153.69164174585
1.2144000530243,-155.86402551300
1.2167999744415,-158.02804950605
1.2192000150681,-160.18392800922
1.2216000556946,-162.33204954630
1.2239999771118,-164.47268582166
1.2264000177383,-166.60660050319
1.2288000583649,-168.73445157870
1.2311999797821,-170.85700077403
1.2336000204086,-172.97507007483
1.2359999418259,-175.08986013389
1.2383999824524,-177.20202807842
1.2408000230789,-179.31272035618
1.2431999444962,178.57702426325
1.2455999851227,176.46649596826
1.2480000257492,174.35482004591
1.2503999471664,172.24134128733
1.2527999877930,170.12551208558
1.2552000284195,168.00684231531
1.2575999498367,165.88527619139
1.2599999904633,163.76064937944
1.2624000310898,161.63318168776
1.2647999525070,159.50325814239
1.2671999931335,157.37125544234
1.2696000337601,155.23810346704
1.2719999551773,153.10457125032
1.2743999958038,150.97163989013
1.2768000364304,148.84045678844
1.2791999578476,146.71238812129
1.2815999984741,144.58869388646
1.2840000391006,142.47078705298
1.2863999605179,140.36003859927
1.2888000011444,138.25792539241
1.2912000417709,136.16575553737
1.2935999631882,134.08489800747
1.2960000038147,132.01655359317
1.2984000444412,129.96165274081
1.3007999658585,127.92138919313
1.3032000064850,125.89637622011
1.3056000471115,123.88720775992
1.3079999685287,121.89437756675
1.3104000091553,119.91804810714
1.3128000497818,117.95822039438
1.3151999711990,116.01467775040
1.3176000118256,114.08708728616
1.3200000524521,112.17490837096
1.3223999738693,110.27759234159
1.3248000144958,108.39415426389
1.3272000551224,106.52388486584
1.3295999765396,104.66579818768
1.3320000171661,102.81896908833
1.3344000577927,100.98263362613
1.3367999792099,99.155803202509
1.3392000198364,97.338043812938
1.3415999412537,95.528481021054
1.3439999818802,93.727004955909
1.3464000225067,91.933178897541
1.3487999439240,90.147002287961
1.3511999845505,88.368694264667
1.3536000251770,86.598582829836
1.3559999465942,84.837268067516
1.3583999872208,83.085405969640
1.3608000278473,81.343817827019
1.3631999492645,79.613484362112
1.3655999898911,77.895336213355
1.3680000305176,76.190576471002
1.3703999519348,74.500131546833
1.3727999925613,72.824876970199
1.3752000331879,71.165796689373
1.3775999546051,69.523438209163
1.3799999952316,67.898343826489
1.3824000358582,66.290682508777
1.3847999572754,64.700342016869
1.3871999979019,63.127101616324
1.3896000385284,61.570093903310
1.3919999599457,60.028491583888
1.3944000005722,58.500986206647
1.3968000411987,56.986050951105
1.3991999626160,55.481879415751
1.4016000032425,53.986558374128
1.4040000438690,52.498178584917
1.4063999652863,51.014442576258
1.4088000059128,49.533497024774
1.4112000465393,48.053474680564
1.4135999679565,46.572579365464
1.4160000085831,45.089501697903
1.4184000492096,43.603089879315
1.4207999706268,42.112741400723
1.4232000112534,40.618296255452
1.4256000518799,39.119912823607
1.4279999732971,37.618531433190
1.4304000139236,36.115343112823
1.4328000545502,34.612208253127
1.4351999759674,33.111261630720
1.4376000165939,31.615231645007
1.4400000572205,30.127127407751
1.4423999786377,28.650384057145
1.4448000192642,27.188613980041
1.4471999406815,25.745532479328
1.4495999813080,24.325124836120
1.4520000219345,22.931220020069
1.4543999433517,21.567588027842
1.4567999839783,20.237885330837
1.4592000246048,18.945175856478
1.4615999460220,17.692628605947
1.4639999866486,16.482428562772
1.4664000272751,15.316433440198
1.4687999486923,14.195680569169
1.4711999893188,13.120936733986
1.4736000299454,12.091655207399
1.4759999513626,11.107179790573
1.4783999919891,10.165651637048
1.4808000326157,9.2651041967621
1.4831999540329,8.4026969601961
1.4855999946594,7.5756435751038
1.4880000352859,6.7806094337524
1.4903999567032,6.0145896307705
1.4927999973297,5.2747437200542
1.4952000379562,4.5583938446191
1.4975999593735,3.8638998846304
1.5000000000000,3.1899515625207
1.5024000406265,2.5362750867611
1.5047999620438,1.9033624342042
1.5072000026703,1.2928528143657
1.5096000432968,0.70698650319037
1.5119999647141,0.14887810092627
1.5144000053406,-0.37770219153113
1.5168000459671,-0.86838290861085
1.5191999673843,-1.3189568761411
1.5216000080109,-1.7251619335383
1.5240000486374,-2.0831185437602
1.5263999700546,-2.3898213838096
1.5288000106812,-2.6434125244146
1.5312000513077,-2.8435645316318
1.5335999727249,-2.9917520912755
1.5360000133514,-3.0915819402414
1.5384000539780,-3.1487917222690
1.5407999753952,-3.1714680005658
1.5432000160217,-3.1696105106158
1.5456000566483,-3.1550755860782
1.5479999780655,-3.1411419812440
1.5504000186920,-3.1415793174583
1.5528000593185,-3.1704299280724
1.5551999807358,-3.2408628373359
1.5576000213623,-3.3650629447431
1.5599999427795,-3.5534122271084
1.5623999834061,-3.8139427337091
1.5648000240326,-4.1525016253966
1.5671999454498,-4.5725313463412
1.5695999860764,-5.0746870116144
1.5720000267029,-5.6578756604799
1.5743999481201,-6.3187646919506
1.5767999887466,-7.0524362476764
1.5792000293732,-7.8526061852880
1.5815999507904,-8.7119529255811
1.5839999914169,-9.6226094659185
1.5864000320435,-10.576158461128
1.5887999534607,-11.564185666901
1.5911999940872,-12.578551140062
1.5936000347137,-13.611220655892
1.5959999561310,-14.654984095079
1.5983999967575,-15.703443892162
1.6008000373840,-16.751031875977
1.6031999588013,-17.793428402828
1.6055999994278,-18.827572376638
1.6080000400543,-19.851445672244
1.6103999614716,-20.864608257989
1.6128000020981,-21.867826417202
1.6152000427246,-22.863231970392
1.6175999641418,-23.853826849069
1.6200000047684,-24.843764935423
1.6224000453949,-25.837808935560
1.6247999668121,-26.841350427390
1.6272000074387,-27.859596558682
1.6296000480652,-28.898059878861
1.6319999694824,-29.961437016444
1.6344000101089,-31.054049538536
1.6368000507355,-32.179172694945
1.6391999721527,-33.339157473642
1.6416000127792,-34.535095321730
1.6440000534058,-35.766826410103
1.6463999748230,-37.033087071783
1.6488000154495,-38.331313722761
1.6512000560760,-39.657848368727
1.6535999774933,-41.007928573166
1.6560000181198,-42.376043165459
1.6584000587463,-43.755739020765
1.6607999801636,-45.140193627130
1.6632000207901,-46.521913918833
1.6655999422073,-47.893251919272
1.6679999828339,-49.246503417715
1.6704000234604,-50.574238768812
1.6727999448776,-51.869021311872
1.6751999855042,-53.124247544744
1.6776000261307,-54.334174634569
1.6799999475479,-55.493722139269
1.6823999881744,-56.599390661824
1.6848000288010,-57.648999275658
1.6871999502182,-58.641895815116
1.6895999908447,-59.579214704420
1.6920000314713,-60.464023295050
1.6943999528885,-61.300967721828
1.6967999935150,-62.096220389457
1.6992000341415,-62.857647973946
1.7015999555588,-63.593890407305
1.7039999961853,-64.314336876157
1.7064000368118,-65.028502469614
1.7087999582291,-65.745563131947
1.7111999988556,-66.473824833163
1.7136000394821,-67.220503001587
1.7159999608994,-67.991274838038
1.7184000015259,-68.789750843297
1.7208000421524,-69.617843537690
1.7231999635696,-70.475279728150
1.7256000041962,-71.360141775843
1.7280000448227,-72.268501381386
1.7303999662399,-73.195059554679
1.7328000068665,-74.133198500469
1.7352000474930,-75.075437147174
1.7375999689102,-76.013522822467
1.7400000095367,-76.939203881560
1.7424000501633,-77.844341995709
1.7447999715805,-78.721283497516
1.7472000122070,-79.563691116460
1.7496000528336,-80.366375935698
1.7519999742508,-81.126165918017
1.7544000148773,-81.842133059260
1.7568000555038,-82.515917921992
1.7591999769211,-83.151726642980
1.7616000175476,-83.756771862364
1.7640000581741,-84.340671060953
1.7663999795914,-84.915445298965
1.7688000202179,-85.494973013201
1.7711999416351,-86.094226652968
1.7735999822617,-86.728559746057
1.7760000228882,-87.412890264185
1.7783999443054,-88.161151046126
1.7807999849319,-88.985309136570
1.7832000255585,-89.895090351557
1.7855999469757,-90.897816766149
1.7879999876022,-91.997914409590
1.7904000282288,-93.197295504000
1.7927999496460,-94.495413993689
1.7951999902725,-95.889264419947
1.7976000308990,-97.374311808428
1.7999999523163,-98.944215882569
1.8023999929428,-100.59143973739
1.8048000335693,-102.30778396100
1.8071999549866,-104.08428987098
1.8095999956131,-105.91193906754
1.8120000362396,-107.78138864044
1.8143999576569,-109.68384317704
1.8167999982834,-111.61088549162
1.8192000389099,-113.55470272299
1.8215999603271,-115.50830036925
1.8240000009537,-117.46588651634
1.8264000415802,-119.42270771458
1.8287999629974,-121.37565172723
1.8312000036240,-123.32291205550
1.8336000442505,-125.26443265402
1.8359999656677,-127.20180452971
1.8384000062943,-129.13819099618
1.8408000469208,-131.07872869857
1.8431999683380,-133.02975845152
1.8456000089645,-134.99920102455
1.8480000495911,-136.99585548952
1.8503999710083,-139.02928665780
1.8528000116348,-141.10948467086
1.8552000522614,-143.24657236159
1.8575999736786,-145.45004570394
1.8600000143051,-147.72898183945
1.8624000549316,-150.09156829731
1.8647999763489,-152.54442571873
1.8672000169754,-155.09350913070
1.8696000576019,-157.74280108190
1.8719999790192,-160.49547903403
1.8744000196457,-163.35301008839
1.8767999410629,-166.31589133804
1.8791999816895,-169.38341169370
1.8816000223160,-172.55409430494
1.8839999437332,-175.82531762830
1.8863999843597,-179.19407632963
1.8888000249863,177.34329097990
1.8911999464035,173.79088276373
1.8935999870300,170.15317885160
1.8960000276566,166.43493278187
1.8983999490738,162.64089857559
1.9007999897003,158.77610521176
1.9032000303268,154.84573979977
1.9055999517441,150.85494308021
1.9079999923706,146.80906625030
1.9104000329971,142.71346808652
1.9127999544144,138.57360530683
1.9151999950409,134.39506234211
1.9176000356674,130.18351061843
1.9199999570847,125.94508010679
1.9223999977112,121.68621134782
1.9248000383377,117.41324522303
1.9271999597549,113.13372097962
1.9296000003815,108.85517977454
1.9320000410080,104.58680522692
1.9343999624252,100.33799003295
1.9368000030518,96.120211103101
1.9392000436783,91.946255327883
1.9415999650955,87.831312224738
1.9440000057220,83.793304152946
1.9464000463486,79.853868462007
1.9487999677658,76.039563265929
1.9512000083923,72.382844305610
1.9536000490189,68.923818063758
1.9559999704361,65.713519226788
1.9584000110626,62.815770741335
1.9608000516891,60.311332131210
1.9631999731064,58.301288565067
1.9656000137329,56.910447119776
1.9680000543594,56.285783762077
1.9703999757767,56.585875249179
1.9728000164032,57.949508373076
1.9752000570297,60.431762292064
1.9775999784470,63.912318451090
1.9800000190735,68.019829410388
1.9823999404907,72.161546373401
1.9847999811172,75.696415464906
1.9872000217438,78.140749162782
1.9895999431610,79.260681952636
1.9919999837875,79.028892227835
1.9944000244141,77.530076619638
1.9967999458313,74.880507313805
1.9991999864578,71.182479394282
2.0016000270844,66.503964944565
2.0039999485016,60.870206830986
2.0064001083374,54.264377770830
2.0088000297546,46.629316209752
2.0111999511719,37.878150955254
2.0136001110077,27.917110749641
2.0160000324249,16.690793757432
2.0183999538422,4.2556972213503
2.0208001136780,-9.1417462397656
2.0232000350952,-23.039377992594
2.0255999565125,-36.850566631032
2.0280001163483,-50.041356672627
2.0304000377655,-62.273185318597
2.0327999591827,-73.426721678819
2.0352001190186,-83.540647447954
2.0376000404358,-92.731240694524
2.0399999618530,-101.13674512411
2.0423998832703,-108.88797025217
2.0448000431061,-116.09704491647
2.0471999645233,-122.85499794806
2.0495998859406,-129.23395929539
2.0520000457764,-135.29064144226
2.0543999671936,-141.06854101428
2.0567998886108,-146.60132545960
2.0592000484467,-151.91477378908
