frequency,phase
0.60000002384186,-46.031323200444
0.60240000486374,-46.431402553039
0.60479998588562,-46.838327743340
0.60720002651215,-47.251110990765
0.60960000753403,-47.668768234537
0.61199998855591,-48.090314188506
0.61440002918243,-48.514823022214
0.61680001020432,-48.941474397864
0.61919999122620,-49.369553534858
0.62159997224808,-49.798509389078
0.62400001287460,-50.227952273122
0.62639999389648,-50.657674159812
0.62879997491837,-51.087671744358
0.63120001554489,-51.518118160342
0.63359999656677,-51.949384712482
0.63599997758865,-52.381989291376
0.63840001821518,-52.816630382935
0.64079999923706,-53.254120581123
0.64319998025894,-53.695356094478
0.64560002088547,-54.141309163945
0.64800000190735,-54.592969535561
0.65039998292923,-55.051322970835
0.65280002355576,-55.517316335692
0.65520000457764,-55.991791361829
0.65759998559952,-56.475519900675
0.66000002622604,-56.969108302505
0.66240000724792,-57.473037169071
0.66479998826981,-57.987616240403
0.66720002889633,-58.512980078439
0.66960000991821,-59.049095990234
0.67199999094009,-59.595770607698
0.67439997196198,-60.152641694171
0.67680001258850,-60.719235156226
0.67919999361038,-61.294917000266
0.68159997463226,-61.879055963955
0.68400001525879,-62.470788704151
0.68639999628067,-63.069419419237
0.68879997730255,-63.674095957287
0.69120001792908,-64.284059860105
0.69359999895096,-64.898557660805
0.69599997997284,-65.516936870636
0.69840002059937,-66.138701741263
0.70080000162125,-66.763363961914
0.70319998264313,-67.390683514007
0.70560002326965,-68.020534793914
0.70800000429153,-68.652896091710
0.71039998531342,-69.287967092776
0.71280002593994,-69.926117439704
0.71520000696182,-70.567807623757
0.71759998798370,-71.213655928173
0.72000002861023,-71.864442130301
0.72240000963211,-72.520931431137
0.72479999065399,-73.184111816580
0.72719997167587,-73.854917978594
0.72960001230240,-74.534303170011
0.73199999332428,-75.223265594047
0.73439997434616,-75.922791632372
0.73680001497269,-76.633758730226
0.73919999599457,-77.357021200972
0.74159997701645,-78.093322332044
0.74400001764297,-78.843379976613
0.74639999866486,-79.607725983918
0.74879997968674,-80.386899909471
0.75120002031326,-81.181272156327
0.75360000133514,-81.991209918703
0.75599998235703,-82.816890979645
0.75840002298355,-83.658567974412
0.76080000400543,-84.516419273261
0.76319998502731,-85.390594212809
0.76560002565384,-86.281251690202
0.76800000667572,-87.188601162810
0.77039998769760,-88.112916841280
0.77280002832413,-89.054506302300
0.77520000934601,-90.013826806769
0.77759999036789,-90.991424966952
0.77999997138977,-91.987915265418
0.78240001201630,-93.004056329090
0.78479999303818,-94.040769568332
0.78719997406006,-95.099086691038
0.78960001468658,-96.180121944553
0.79199999570847,-97.285109777970
0.79439997673035,-98.415375990520
0.79680001735687,-99.572280038976
0.79919999837875,-100.75727056090
0.80159997940063,-101.97177989886
0.80400002002716,-103.21722434160
0.80640000104904,-104.49500285212
0.80879998207092,-105.80641984994
0.81120002269745,-107.15271820260
0.81360000371933,-108.53498521536
0.81599998474121,-109.95420890231
0.81840002536774,-111.41118901122
0.82080000638962,-112.90658626002
0.82319998741150,-114.44082870758
0.82560002803802,-116.01421917318
0.82800000905991,-117.62681201588
0.83039999008179,-119.27849031663
0.83279997110367,-120.96897543854
0.83520001173019,-122.69775045193
0.83759999275208,-124.46416011491
0.83999997377396,-126.26740004941
0.84240001440048,-128.10648343926
0.84479999542236,-129.98029070498
0.84719997644424,-131.88762255426
0.84960001707077,-133.82712154604
0.85199999809265,-135.79741256832
0.85439997911453,-137.79699095996
0.85680001974106,-139.82435458587
0.85920000076294,-141.87794776126
0.86159998178482,-143.95617903220
0.86400002241135,-146.05754634003
0.86640000343323,-148.18046183638
0.86879998445511,-150.32352953845
0.87120002508163,-152.48528474990
0.87360000610352,-154.66447083016
0.87599998712540,-156.85987049354
0.87840002775192,-159.07044620971
0.88080000877380,-161.29528621150
0.88319998979568,-163.53366312814
0.88559997081757,-165.78508303990
0.88800001144409,-168.04923718778
0.89039999246597,-170.32606619177
0.89279997348785,-172.61579185363
0.89520001411438,-174.91886281757
0.89759999513626,-177.23604608684
0.89999997615814,-179.56836435366
0.90240001678467,178.08293842611
0.90479999780655,175.71627791306
0.90719997882843,173.32987856466
0.90960001945496,170.92179912741
0.91200000047684,168.48995111383
0.91439998149872,166.03213642441
0.91680002212524,163.54624791872
0.91920000314713,161.03022235377
0.92159998416901,158.48223421583
0.92400002479553,155.90080548465
0.92640000581741,153.28489732507
0.92879998683929,150.63403516216
0.93120002746582,147.94848443566
0.93360000848770,145.22933057202
0.93599998950958,142.47848580792
0.93839997053146,139.69892574851
0.94080001115799,136.89457798745
0.94319999217987,134.07035913961
0.94559997320175,131.23219946064
0.94800001382828,128.38684111596
0.95039999485016,125.54181520954
0.95279997587204,122.70526519683
0.95520001649857,119.88573834411
0.95759999752045,117.09197093032
0.95999997854233,114.33271382660
0.96240001916885,111.61650957796
0.96480000019073,108.95153589398
0.96719998121262,106.34527073538
0.96960002183914,103.80457702866
0.97200000286102,101.33532648584
0.97439998388290,98.942547282873
0.97680002450943,96.630064066451
0.97920000553131,94.400772158302
0.98159998655319,92.256311380727
0.98400002717972,90.197419114729
0.98640000820160,88.223631002628
0.98879998922348,86.333553616837
0.99119997024536,84.524892282712
0.99360001087189,82.794422716260
0.99599999189377,81.138320069275
0.99839997291565,79.551995549438
1.0008000135422,78.030584069578
1.0032000541687,76.568705078183
1.0055999755859,75.160811661663
1.0080000162125,73.801276245756
1.0104000568390,72.484553234562
1.0127999782562,71.205312412656
1.0152000188828,69.958503167315
1.0176000595093,68.739313774968
1.0199999809265,67.543676876132
1.0224000215530,66.367818359967
1.0247999429703,65.208599305320
1.0271999835968,64.063476862031
1.0296000242233,62.930483947193
1.0319999456406,61.808174075687
1.0343999862671,60.695674110572
1.0368000268936,59.592596737713
1.0391999483109,58.498919629018
1.0415999889374,57.415163253650
1.0440000295639,56.342001394875
1.0463999509811,55.280481274170
1.0487999916077,54.231803287013
1.0512000322342,53.197272340019
1.0535999536514,52.178291047471
1.0559999942780,51.176248034981
1.0584000349045,50.192508420083
1.0607999563217,49.228331965057
1.0631999969482,48.284863040471
1.0656000375748,47.362981451227
1.0679999589920,46.463416651801
1.0703999996185,45.586611302678
1.0728000402451,44.732783643513
1.0751999616623,43.901795993925
1.0776000022888,43.093347249796
1.0800000429153,42.306783671177
1.0823999643326,41.541226846533
1.0848000049591,40.795508404185
1.0872000455856,40.068337595388
1.0895999670029,39.358245886539
1.0920000076294,38.663615995705
1.0944000482559,37.982807497411
1.0967999696732,37.314134465249
1.0992000102997,36.655948676613
1.1016000509262,36.006725247436
1.1039999723434,35.364958643531
1.1064000129700,34.729506526127
1.1088000535965,34.099243734472
1.1111999750137,33.473406613322
1.1136000156403,32.851422646946
1.1160000562668,32.232965526631
1.1183999776840,31.618081092234
1.1208000183105,31.006914422723
1.1232000589371,30.399960632389
1.1255999803543,29.797948957565
1.1280000209808,29.201725388866
1.1303999423981,28.612335578492
1.1327999830246,28.030975885221
1.1352000236511,27.458852981871
1.1375999450684,26.897330387427
1.1399999856949,26.347688722226
1.1424000263214,25.811165688313
1.1447999477386,25.288987032049
1.1471999883652,24.782157552845
1.1496000289917,24.291694975388
1.1519999504089,23.818253720223
1.1543999910355,23.362323241455
1.1568000316620,22.924344830352
1.1591999530792,22.504314804546
1.1615999937057,22.102045235362
1.1640000343323,21.717260953356
1.1663999557495,21.349275552772
1.1687999963760,20.997329267690
1.1712000370026,20.660467272918
1.1735999584198,20.337587685013
1.1759999990463,20.027552514175
1.1784000396729,19.729183499760
1.1807999610901,19.441222236868
1.1832000017166,19.162494891602
1.1856000423431,18.891992010181
1.1879999637604,18.628784896030
1.1904000043869,18.372078271261
1.1928000450134,18.121329839926
1.1951999664307,17.876261893434
1.1976000070572,17.636712244480
1.2000000476837,17.402901398754
1.2023999691010,17.175238715173
1.2048000097275,16.954322607435
1.2072000503540,16.741056607550
1.2095999717712,16.536507641130
1.2120000123978,16.341873849332
1.2144000530243,16.158468914421
1.2167999744415,15.987879012730
1.2192000150681,15.831520778414
1.2216000556946,15.690928517876
1.2239999771118,15.567602138330
1.2264000177383,15.463018194850
1.2288000583649,15.378460743182
1.2311999797821,15.315133555549
1.2336000204086,15.274068151496
1.2359999418259,15.256173669667
1.2383999824524,15.262019551861
1.2408000230789,15.292126436167
1.2431999444962,15.346687835969
1.2455999851227,15.425726090037
1.2480000257492,15.529135326689
1.2503999471664,15.656642472317
1.2527999877930,15.807805575522
1.2552000284195,15.982114150463
1.2575999498367,16.179013451450
1.2599999904633,16.397964595129
1.2624000310898,16.638411900436
1.2647999525070,16.899845712943
1.2671999931335,17.181905597541
1.2696000337601,17.484343616850
1.2719999551773,17.806975480497
1.2743999958038,18.149770285664
1.2768000364304,18.512918124697
1.2791999578476,18.896526574155
1.2815999984741,19.300873709892
1.2840000391006,19.726259572182
1.2863999605179,20.172982325802
1.2888000011444,20.641120725033
1.2912000417709,21.130764955722
1.2935999631882,21.641661605018
1.2960000038147,22.173352789808
1.2984000444412,22.724958359625
1.3007999658585,23.295253051703
1.3032000064850,23.882594748027
1.3056000471115,24.484880651130
1.3079999685287,25.099486889068
1.3104000091553,25.723411429994
1.3128000497818,26.353236923368
1.3151999711990,26.985304125276
1.3176000118256,27.615456218155
1.3200000524521,28.239654062028
1.3223999738693,28.853605517883
1.3248000144958,29.453157536049
1.3272000551224,30.034270358190
1.3295999765396,30.593202159813
1.3320000171661,31.126579862790
1.3344000577927,31.631388642728
1.3367999792099,32.105128833698
1.3392000198364,32.545867693931
1.3415999412537,32.952126912264
1.3439999818802,33.322979682157
1.3464000225067,33.657961773326
1.3487999439240,33.957149618283
1.3511999845505,34.221015376912
1.3536000251770,34.450342113489
1.3559999465942,34.646234902969
1.3583999872208,34.809995003269
1.3608000278473,34.943128346799
1.3631999492645,35.047221084008
1.3655999898911,35.123854906871
1.3680000305176,35.174646073432
1.3703999519348,35.201173955666
1.3727999925613,35.204807399019
1.3752000331879,35.186883479242
1.3775999546051,35.148553628666
1.3799999952316,35.090794857951
1.3824000358582,35.014380629492
1.3847999572754,34.919961848537
1.3871999979019,34.808028005675
1.3896000385284,34.678855266876
1.3919999599457,34.532660632218
1.3944000005722,34.369501288364
1.3968000411987,34.189405258727
1.3991999626160,33.992338883617
1.4016000032425,33.778251335028
1.4040000438690,33.547093307394
1.4063999652863,33.298881181451
1.4088000059128,33.033679730262
1.4112000465393,32.751649146351
1.4135999679565,32.453032790861
1.4160000085831,32.138213183401
1.4184000492096,31.807690400714
1.4207999706268,31.462107172523
1.4232000112534,31.102186229762
1.4256000518799,30.728763768562
1.4279999732971,30.342860301776
1.4304000139236,29.945532732375
1.4328000545502,29.537909054667
1.4351999759674,29.121129659161
1.4376000165939,28.696455607602
1.4400000572205,28.265117636121
1.4423999786377,27.828281203639
1.4448000192642,27.387188977082
1.4471999406815,26.942902518776
1.4495999813080,26.496534925024
1.4520000219345,26.048994142796
1.4543999433517,25.601098698721
1.4567999839783,25.153637977603
1.4592000246048,24.707104609285
1.4615999460220,24.262023879328
1.4639999866486,23.818664017638
1.4664000272751,23.377242540223
1.4687999486923,22.937758677072
1.4711999893188,22.500161950054
1.4736000299454,22.064260816660
1.4759999513626,21.629832621136
1.4783999919891,21.196497659050
1.4808000326157,20.763928462707
1.4831999540329,20.331659907973
1.4855999946594,19.899280959768
1.4880000352859,19.466466411991
1.4903999567032,19.032777032936
1.4927999973297,18.597939488863
1.4952000379562,18.161681331458
1.4975999593735,17.723865597139
1.5000000000000,17.284494079075
1.5024000406265,16.843537681380
1.5047999620438,16.401131759820
1.5072000026703,15.957498718893
1.5096000432968,15.512961027183
1.5119999647141,15.067934116220
1.5144000053406,14.622877988555
1.5168000459671,14.178233048252
1.5191999673843,13.734572328239
1.5216000080109,13.292440689714
1.5240000486374,12.852383680926
1.5263999700546,12.414896726623
1.5288000106812,11.980442740393
1.5312000513077,11.549375768125
1.5335999727249,11.122024430463
1.5360000133514,10.698552673230
1.5384000539780,10.279097144181
1.5407999753952,9.8636022488726
1.5432000160217,9.4519058034588
1.5456000566483,9.0437885986183
1.5479999780655,8.6388403035092
1.5504000186920,8.2365420312277
1.5528000593185,7.8363750031219
1.5551999807358,7.4376286563953
1.5576000213623,7.0396473877551
1.5599999427795,6.6416656955524
1.5623999834061,6.2429463495488
1.5648000240326,5.8427797603126
1.5671999454498,5.4404545712345
1.5695999860764,5.0354238590912
1.5720000267029,4.6270882511247
1.5743999481201,4.2150637501094
1.5767999887466,3.7990779313405
1.5792000293732,3.3789120379737
1.5815999507904,2.9545658947777
1.5839999914169,2.5261491644739
1.5864000320435,2.0939346260609
1.5887999534607,1.6582779481502
1.5911999940872,1.2196978689764
1.5936000347137,0.77874083071597
1.5959999561310,0.33617189898983
1.5983999967575,-0.10729863132789
1.6008000373840,-0.55087845621201
1.6031999588013,-0.99380257402253
1.6055999994278,-1.4353059647158
1.6080000400543,-1.8745963739366
1.6103999614716,-2.3110727808114
1.6128000020981,-2.7440796249801
1.6152000427246,-3.1732340217280
1.6175999641418,-3.5982082363416
1.6200000047684,-4.0187563562258
1.6224000453949,-4.4349068378207
1.6247999668121,-4.8467396994080
1.6272000074387,-5.2546114263300
1.6296000480652,-5.6589035512207
1.6319999694824,-6.0602729701685
1.6344000101089,-6.4593744406228
1.6368000507355,-6.8570831817805
1.6391999721527,-7.2542446361431
1.6416000127792,-7.6518432128884
1.6440000534058,-8.0508356247475
1.6463999748230,-8.4522043708565
1.6488000154495,-8.8567986520523
1.6512000560760,-9.2655440780064
1.6535999774933,-9.6790714829664
1.6560000181198,-10.098062277413
1.6584000587463,-10.522982105878
1.6607999801636,-10.954076657716
1.6632000207901,-11.391535994622
1.6655999422073,-11.835334100403
1.6679999828339,-12.285170322897
1.6704000234604,-12.740799538891
1.6727999448776,-13.201644786523
1.6751999855042,-13.667109022591
1.6776000261307,-14.136452762802
1.6799999475479,-14.608855864328
1.6823999881744,-15.083470844160
1.6848000288010,-15.559427764155
1.6871999502182,-16.035927960551
1.6895999908447,-16.512184328962
1.6920000314713,-16.987455596984
1.6943999528885,-17.461278813769
1.6967999935150,-17.933165254639
1.6992000341415,-18.402861997489
1.7015999555588,-18.870319978045
1.7039999961853,-19.335702271041
1.7064000368118,-19.799280898716
1.7087999582291,-20.261628733278
1.7111999988556,-20.723487558123
1.7136000394821,-21.185699594990
1.7159999608994,-21.649388719795
1.7184000015259,-22.115671095243
1.7208000421524,-22.585780246450
1.7231999635696,-23.061103383707
1.7256000041962,-23.542851206208
1.7280000448227,-24.032276972210
1.7303999662399,-24.530607419797
1.7328000068665,-25.038882646877
1.7352000474930,-25.557894860905
1.7375999689102,-26.088412293274
1.7400000095367,-26.630835067624
1.7424000501633,-27.185417478305
1.7447999715805,-27.752107403330
1.7472000122070,-28.330596737450
1.7496000528336,-28.920368560641
1.7519999742508,-29.520690247450
1.7544000148773,-30.130485921210
1.7568000555038,-30.748675181814
1.7591999769211,-31.373855944388
1.7616000175476,-32.004663422023
1.7640000581741,-32.639517967515
1.7663999795914,-33.276912619158
1.7688000202179,-33.915343818777
1.7711999416351,-34.553391329103
1.7735999822617,-35.189747261802
1.7760000228882,-35.823341592290
1.7783999443054,-36.453195873742
1.7807999849319,-37.078727449512
1.7832000255585,-37.699592419542
1.7855999469757,-38.315786625871
1.7879999876022,-38.927661932404
1.7904000282288,-39.535877654118
1.7927999496460,-40.141440847310
1.7951999902725,-40.745665889934
1.7976000308990,-41.350110548334
1.7999999523163,-41.956579091916
1.8023999929428,-42.566896599609
1.8048000335693,-43.183036131893
1.8071999549866,-43.806820608543
1.8095999956131,-44.439976650759
1.8120000362396,-45.083768825896
1.8143999576569,-45.739163073944
1.8167999982834,-46.406419924810
1.8192000389099,-47.085149853552
1.8215999603271,-47.773931824917
1.8240000009537,-48.470313033129
1.8264000415802,-49.170569711036
1.8287999629974,-49.869409129171
1.8312000036240,-50.559802016727
1.8336000442505,-51.232548126193
1.8359999656677,-51.875872602011
1.8384000062943,-52.475016545560
1.8408000469208,-53.011265428859
1.8431999683380,-53.461239055296
1.8456000089645,-53.795535877899
1.8480000495911,-53.976946023738
1.8503999710083,-53.958340362787
1.8528000116348,-53.679341007277
1.8552000522614,-53.062546812644
1.8575999736786,-52.008211345441
1.8600000143051,-50.388611399676
1.8624000549316,-48.043065219923
1.8647999763489,-44.777911535772
1.8672000169754,-40.381891505031
1.8696000576019,-34.674012117431
1.8719999790192,-27.604790968819
1.8744000196457,-19.396627445945
1.8767999410629,-10.623987305385
1.8791999816895,-2.0870973721691
1.8816000223160,5.4956148473465
1.8839999437332,11.725595189354
1.8863999843597,16.533857128752
1.8888000249863,20.051841366986
1.8911999464035,22.484754610701
1.8935999870300,24.038514602988
1.8960000276566,24.891085175189
1.8983999490738,25.186392653706
1.9007999897003,25.037741299899
1.9032000303268,24.533484900380
1.9055999517441,23.742464292978
1.9079999923706,22.718839125234
1.9104000329971,21.505468182437
1.9127999544144,20.136618136490
1.9151999950409,18.640204117273
1.9176000356674,17.038934978298
1.9199999570847,15.351714528650
1.9223999977112,13.594387919891
1.9248000383377,11.780399789102
1.9271999597549,9.9212768385064
1.9296000003815,8.0269107332120
1.9320000410080,6.1060428685332
1.9343999624252,4.1663508642706
1.9368000030518,2.2146377974543
1.9392000436783,0.25694167851323
1.9415999650955,-1.7013554540099
1.9440000057220,-3.6552815099697
1.9464000463486,-5.6004641970083
1.9487999677658,-7.5329160698584
1.9512000083923,-9.4491661713962
1.9536000490189,-11.345965838405
1.9559999704361,-13.220552155253
1.9584000110626,-15.070466723289
1.9608000516891,-16.893635471174
1.9631999731064,-18.688281654429
1.9656000137329,-20.453120355952
1.9680000543594,-22.187059707572
1.9703999757767,-23.889524369520
1.9728000164032,-25.560215780628
1.9752000570297,-27.199216902103
1.9775999784470,-28.807042397778
1.9800000190735,-30.384516598462
1.9823999404907,-31.932784372624
1.9847999811172,-33.453401309828
1.9872000217438,-34.948174644001
1.9895999431610,-36.419178162794
1.9919999837875,-37.868790753520
1.9944000244141,-39.299499658613
1.9967999458313,-40.713973131889
1.9991999864578,-42.114983028531
2.0016000270844,-43.505366017775
2.0039999485016,-44.887874987154
2.0064001083374,-46.265281247196
2.0088000297546,-47.640197667761
2.0111999511719,-49.015057444555
2.0136001110077,-50.392242522469
2.0160000324249,-51.773773454738
2.0183999538422,-53.161422648936
2.0208001136780,-54.556882452743
2.0232000350952,-55.961359562649
2.0255999565125,-57.375976980533
2.0280001163483,-58.801544720062
2.0304000377655,-60.238673815054
2.0327999591827,-61.687657087251
2.0352001190186,-63.148961973451
2.0376000404358,-64.622397350066
2.0399999618530,-66.108127517730
2.0423998832703,-67.606178143926
2.0448000431061,-69.116414968998
2.0471999645233,-70.638809404757
2.0495998859406,-72.173607918248
2.0520000457764,-73.721082040410
2.0543999671936,-75.281644975471
2.0567998886108,-76.856112327901
2.0592000484467,-78.445524878993
