frequency,phase
0.60000002384186,119.68595158959
0.60240000486374,115.42553879653
0.60479998588562,111.53524581092
0.60720002651215,108.04891415415
0.60960000753403,105.00484198393
0.61199998855591,102.44351483183
0.61440002918243,100.40359671112
0.61680001020432,98.915640537257
0.61919999122620,97.993079404504
0.62159997224808,97.621189522571
0.62400001287460,97.746215821582
0.62639999389648,98.268943925277
0.62879997491837,99.047851489482
0.63120001554489,99.914376998448
0.63359999656677,100.69740424206
0.63599997758865,101.24879840496
0.63840001821518,101.46111348126
0.64079999923706,101.27320989330
0.64319998025894,100.66554855192
0.64560002088547,99.649891338136
0.64800000190735,98.258076984971
0.65039998292923,96.532600165507
0.65280002355576,94.519846506584
0.65520000457764,92.265822047736
0.65759998559952,89.813832023763
0.66000002622604,87.203313183974
0.66240000724792,84.469502819018
0.66479998826981,81.643532544182
0.66720002889633,78.752674589749
0.66960000991821,75.820707738225
0.67199999094009,72.868283276833
0.67439997196198,69.913175316744
0.67680001258850,66.970586002918
0.67919999361038,64.053322905187
0.68159997463226,61.171909794407
0.68400001525879,58.334691432224
0.68639999628067,55.547886653610
0.68879997730255,52.815623193661
0.69120001792908,50.139934033603
0.69359999895096,47.520814635016
0.69599997997284,44.956269095845
0.69840002059937,42.442418711982
0.70080000162125,39.973659912258
0.70319998264313,37.542860629166
0.70560002326965,35.141633572263
0.70800000429153,32.760675335986
0.71039998531342,30.390105085505
0.71280002593994,28.019871513226
0.71520000696182,25.640098484021
0.71759998798370,23.241457855689
0.72000002861023,20.815457007694
0.72240000963211,18.354685272623
0.72479999065399,15.852973887563
0.72719997167587,13.305503640769
0.72960001230240,10.708825744630
0.73199999332428,8.0608416765477
0.73439997434616,5.3607144525384
0.73680001497269,2.6087678280814
0.73919999599457,-0.19364976297637
0.74159997701645,-3.0443086848643
0.74400001764297,-5.9402412042662
0.74639999866486,-8.8778836126373
0.74879997968674,-11.853201713175
0.75120002031326,-14.861821147624
0.75360000133514,-17.899108847431
0.75599998235703,-20.960298180221
0.75840002298355,-24.040525647782
0.76080000400543,-27.134916714300
0.76319998502731,-30.238645956162
0.76560002565384,-33.347014242872
0.76800000667572,-36.455413812281
0.77039998769760,-39.559416332659
0.77280002832413,-42.654783727292
0.77520000934601,-45.737455132378
0.77759999036789,-48.803739482664
0.77999997138977,-51.850036384477
0.78240001201630,-54.873171149919
0.78479999303818,-57.870239317940
0.78719997406006,-60.838592101176
0.78960001468658,-63.775983266420
0.79199999570847,-66.680526360640
0.79439997673035,-69.550667820321
0.79680001735687,-72.385251963346
0.79919999837875,-75.183532094314
0.80159997940063,-77.945127661900
0.80400002002716,-80.670066646402
0.80640000104904,-83.358777487722
0.80879998207092,-86.012073631270
0.81120002269745,-88.631123299359
0.81360000371933,-91.217476837049
0.81599998474121,-93.772958005532
0.81840002536774,-96.299704673059
0.82080000638962,-98.800127115339
0.82319998741150,-101.27679438183
0.82560002803802,-103.73245948343
0.82800000905991,-106.17000451067
0.83039999008179,-108.59234527359
0.83279997110367,-111.00243131038
0.83520001173019,-113.40318812155
0.83759999275208,-115.79745459456
0.83999997377396,-118.18799425376
0.84240001440048,-120.57740067694
0.84479999542236,-122.96814558609
0.84719997644424,-125.36246657614
0.84960001707077,-127.76249635283
0.85199999809265,-130.17008615099
0.85439997911453,-132.58695045285
0.85680001974106,-135.01457490603
0.85920000076294,-137.45426455239
0.86159998178482,-139.90717704143
0.86400002241135,-142.37428047064
0.86640000343323,-144.85640123567
0.86879998445511,-147.35421353276
0.87120002508163,-149.86829755642
0.87360000610352,-152.39908664242
0.87599998712540,-154.94694120431
0.87840002775192,-157.51213812704
0.88080000877380,-160.09485287838
0.88319998979568,-162.69517403696
0.88559997081757,-165.31315812687
0.88800001144409,-167.94876482025
0.89039999246597,-170.60192470322
0.89279997348785,-173.27247306615
0.89520001411438,-175.96019420808
0.89759999513626,-178.66482596354
0.89999997615814,178.61398572417
0.90240001678467,175.87663713490
0.90479999780655,173.12357919806
0.90719997882843,170.35535805390
0.90960001945496,167.57257397510
0.91200000047684,164.77588537069
0.91439998149872,161.96604143391
0.91680002212524,159.14382172821
0.91920000314713,156.31007175915
0.92159998416901,153.46576122219
0.92400002479553,150.61184845242
0.92640000581741,147.74935760686
0.92879998683929,144.87940943241
0.93120002746582,142.00313497242
0.93360000848770,139.12171193403
0.93599998950958,136.23635029082
0.93839997053146,133.34830070743
0.94080001115799,130.45884024736
0.94319999217987,127.56926387929
0.94559997320175,124.68088279972
0.94800001382828,121.79502334136
0.95039999485016,118.91292751238
0.95279997587204,116.03597042085
0.95520001649857,113.16543413108
0.95759999752045,110.30254576703
0.95999997854233,107.44853729608
0.96240001916885,104.60466516596
0.96480000019073,101.77207648567
0.96719998121262,98.951809404549
0.96960002183914,96.145038322506
0.97200000286102,93.352720491904
0.97439998388290,90.575811586492
0.97680002450943,87.815158303680
0.97920000553131,85.071608492361
0.98159998655319,82.345898756070
0.98400002717972,79.638602929462
0.98640000820160,76.950430459338
0.98879998922348,74.281820628541
0.99119997024536,71.633212126721
0.99360001087189,69.004927008169
0.99599999189377,66.397214939120
0.99839997291565,63.810266673876
1.0008000135422,61.244247940688
1.0032000541687,58.699100318501
1.0055999755859,56.174826267754
1.0080000162125,53.671368974097
1.0104000568390,51.188461960379
1.0127999782562,48.725905381563
1.0152000188828,46.283453040831
1.0176000595093,43.860675911820
1.0199999809265,41.457298060543
1.0224000215530,39.072800370020
1.0247999429703,36.706712041516
1.0271999835968,34.358517297167
1.0296000242233,32.027673764272
1.0319999456406,29.713635819190
1.0343999862671,27.415714769534
1.0368000268936,25.133280985451
1.0391999483109,22.865687356042
1.0415999889374,20.612217659982
1.0440000295639,18.372160837082
1.0463999509811,16.144782177792
1.0487999916077,13.929258467029
1.0512000322342,11.724857337245
1.0535999536514,9.5306991150748
1.0559999942780,7.3460494436147
1.0584000349045,5.1699788416218
1.0607999563217,3.0017215676591
1.0631999969482,0.84029447673164
1.0656000375748,-1.3150946348851
1.0679999589920,-3.4652928952338
1.0703999996185,-5.6112558783710
1.0728000402451,-7.7537777269259
1.0751999616623,-9.8937035508378
1.0776000022888,-12.031880360508
1.0800000429153,-14.169100970902
1.0823999643326,-16.306076783074
1.0848000049591,-18.443596732990
1.0872000455856,-20.582290673053
1.0895999670029,-22.722847326831
1.0920000076294,-24.865723376340
1.0944000482559,-27.011523032618
1.0967999696732,-29.160683331841
1.0992000102997,-31.313560707641
1.1016000509262,-33.470505212259
1.1039999723434,-35.631797864683
1.1064000129700,-37.797648481203
1.1088000535965,-39.968121438577
1.1111999750137,-42.143341628258
1.1136000156403,-44.323319447928
1.1160000562668,-46.508082230341
1.1183999776840,-48.697509505596
1.1208000183105,-50.891528305732
1.1232000589371,-53.090032670011
1.1255999803543,-55.292795308372
1.1280000209808,-57.499631443283
1.1303999423981,-59.710397967002
1.1327999830246,-61.924854962733
1.1352000236511,-64.142807801552
1.1375999450684,-66.364068738932
1.1399999856949,-68.588442690765
1.1424000263214,-70.815657171335
1.1447999477386,-73.045686295964
1.1471999883652,-75.278284230098
1.1496000289917,-77.513367867612
1.1519999504089,-79.750801554427
1.1543999910355,-81.990474883933
1.1568000316620,-84.232389285442
1.1591999530792,-86.476461339278
1.1615999937057,-88.722664651256
1.1640000343323,-90.970971815652
1.1663999557495,-93.221464451728
1.1687999963760,-95.474088144415
1.1712000370026,-97.728870465237
1.1735999584198,-99.985920016076
1.1759999990463,-102.24518247555
1.1784000396729,-104.50679421553
1.1807999610901,-106.77064553521
1.1832000017166,-109.03690353651
1.1856000423431,-111.30551067173
1.1879999637604,-113.57652052648
1.1904000043869,-115.84988059927
1.1928000450134,-118.12564565575
1.1951999664307,-120.40375764086
1.1976000070572,-122.68411460257
1.2000000476837,-124.96681585720
1.2023999691010,-127.25164995876
1.2048000097275,-129.53861917549
1.2072000503540,-131.82766047140
1.2095999717712,-134.11867070207
1.2120000123978,-136.41164584922
1.2144000530243,-138.70637169158
1.2167999744415,-141.00289999080
1.2192000150681,-143.30106662548
1.2216000556946,-145.60087376780
1.2239999771118,-147.90226514803
1.2264000177383,-150.20518521068
1.2288000583649,-152.50963687879
1.2311999797821,-154.81556598670
1.2336000204086,-157.12296464319
1.2359999418259,-159.43200646835
1.2383999824524,-161.74252334158
1.2408000230789,-164.05473309698
1.2431999444962,-166.36863778281
1.2455999851227,-168.68434493513
1.2480000257492,-171.00180009128
1.2503999471664,-173.32127828746
1.2527999877930,-175.64283219482
1.2552000284195,-177.96640824403
1.2575999498367,179.70777583113
1.2599999904633,177.37966499510
1.2624000310898,175.04920409586
1.2647999525070,172.71644964888
1.2671999931335,170.38123509228
1.2696000337601,168.04356167220
1.2719999551773,165.70359337774
1.2743999958038,163.36132915878
1.2768000364304,161.01693509500
1.2791999578476,158.67035493668
1.2815999984741,156.32197427280
1.2840000391006,153.97184154258
1.2863999605179,151.62034390895
1.2888000011444,149.26769999952
1.2912000417709,146.91428936388
1.2935999631882,144.56043969289
1.2960000038147,142.20653815250
1.2984000444412,139.85312877563
1.3007999658585,137.50075888353
1.3032000064850,135.14969740378
1.3056000471115,132.80071484354
1.3079999685287,130.45440737242
1.3104000091553,128.11132434419
1.3128000497818,125.77217711331
1.3151999711990,123.43761627513
1.3176000118256,121.10841360618
1.3200000524521,118.78522080702
1.3223999738693,116.46891270150
1.3248000144958,114.16019960910
1.3272000551224,111.86000920455
1.3295999765396,109.56911161794
1.3320000171661,107.28826156172
1.3344000577927,105.01856471588
1.3367999792099,102.76083138729
1.3392000198364,100.51599488226
1.3415999412537,98.284981736060
1.3439999818802,96.068831430337
1.3464000225067,93.868581280498
1.3487999439240,91.685270218202
1.3511999845505,89.519827020370
1.3536000251770,87.373399079848
1.3559999465942,85.247188697368
1.3583999872208,83.142069578443
1.3608000278473,81.059408636266
1.3631999492645,79.000187863930
1.3655999898911,76.965502846932
1.3680000305176,74.956608423189
1.3703999519348,72.974539569241
1.3727999925613,71.020450637901
1.3752000331879,69.095374401544
1.3775999546051,67.200408952272
1.3799999952316,65.336367307475
1.3824000358582,63.504292250148
1.3847999572754,61.705001986975
1.3871999979019,59.939259793566
1.3896000385284,58.207781994790
1.3919999599457,56.511000463577
1.3944000005722,54.849296382114
1.3968000411987,53.223055009516
1.3991999626160,51.632332277983
1.4016000032425,50.077069972331
1.4040000438690,48.557215322439
1.4063999652863,47.072222758205
1.4088000059128,45.621652809508
1.4112000465393,44.204855589220
1.4135999679565,42.820948846197
1.4160000085831,41.469010207942
1.4184000492096,40.147939102656
1.4207999706268,38.856599293987
1.4232000112534,37.593614173262
1.4256000518799,36.357785867440
1.4279999732971,35.147697470390
1.4304000139236,33.962085102248
1.4328000545502,32.799587619102
1.4351999759674,31.658835301660
1.4376000165939,30.538686714902
1.4400000572205,29.438040318573
1.4423999786377,28.355920499977
1.4448000192642,27.291229272701
1.4471999406815,26.243317759644
1.4495999813080,25.211354942002
1.4520000219345,24.194914140071
1.4543999433517,23.193389303055
1.4567999839783,22.206346205269
1.4592000246048,21.233507684952
1.4615999460220,20.274659004024
1.4639999866486,19.329415896131
1.4664000272751,18.397613580284
1.4687999486923,17.478871852521
1.4711999893188,16.573023585124
1.4736000299454,15.679688521468
1.4759999513626,14.798540770581
1.4783999919891,13.929085111658
1.4808000326157,13.070994351968
1.4831999540329,12.223559691176
1.4855999946594,11.386397743523
1.4880000352859,10.558851570738
1.4903999567032,9.7402673173843
1.4927999973297,8.9300422429520
1.4952000379562,8.1277957272924
1.4975999593735,7.3328157810855
1.5000000000000,6.5448857963306
1.5024000406265,5.7634577452502
1.5047999620438,4.9883679495968
1.5072000026703,4.2195069329659
1.5096000432968,3.4568751991702
1.5119999647141,2.7004183474529
1.5144000053406,1.9504632427253
1.5168000459671,1.2072294878587
1.5191999673843,0.47093517253157
1.5216000080109,-0.25798260897295
1.5240000486374,-0.97935990779488
1.5263999700546,-1.6928141029531
1.5288000106812,-2.3981812947619
1.5312000513077,-3.0955711805762
1.5335999727249,-3.7850925482592
1.5360000133514,-4.4670733555700
1.5384000539780,-5.1421690052066
1.5407999753952,-5.8112000095380
1.5432000160217,-6.4753123035658
1.5456000566483,-7.1359289421502
1.5479999780655,-7.7946325513463
1.5504000186920,-8.4532258050239
1.5528000593185,-9.1138422945782
1.5551999807358,-9.7785560026620
1.5576000213623,-10.449554459718
1.5599999427795,-11.129075920612
1.5623999834061,-11.819251789372
1.5648000240326,-12.522052803901
1.5671999454498,-13.239331115757
1.5695999860764,-13.972511687728
1.5720000267029,-14.722958253409
1.5743999481201,-15.491489128395
1.5767999887466,-16.278654960563
1.5792000293732,-17.084727115042
1.5815999507904,-17.909322095551
1.5839999914169,-18.752058131474
1.5864000320435,-19.612061875182
1.5887999534607,-20.488129411904
1.5911999940872,-21.379057441077
1.5936000347137,-22.283375077802
1.5959999561310,-23.199331362307
1.5983999967575,-24.125396089381
1.6008000373840,-25.060039070198
1.6031999588013,-26.001677083514
1.6055999994278,-26.949103448050
1.6080000400543,-27.901014313577
1.6103999614716,-28.856641019485
1.6128000020981,-29.815215019503
1.6152000427246,-30.776743075849
1.6175999641418,-31.740891464811
1.6200000047684,-32.708212855717
1.6224000453949,-33.679081093094
1.6247999668121,-34.654378124726
1.6272000074387,-35.635084697842
1.6296000480652,-36.622236193594
1.6319999694824,-37.617094143467
1.6344000101089,-38.620805776912
1.6368000507355,-39.634130991643
1.6391999721527,-40.658061147077
1.6416000127792,-41.693186603604
1.6440000534058,-42.739520369378
1.6463999748230,-43.796889252763
1.6488000154495,-44.864691455983
1.6512000560760,-45.941729891004
1.6535999774933,-47.026362942841
1.6560000181198,-48.116459191666
1.6584000587463,-49.209345450763
1.6607999801636,-50.301850372345
1.6632000207901,-51.390580816665
1.6655999422073,-52.471502336087
1.6679999828339,-53.540453065757
1.6704000234604,-54.593066815934
1.6727999448776,-55.624916316040
1.6751999855042,-56.631468259659
1.6776000261307,-57.608456379661
1.6799999475479,-58.551736540764
1.6823999881744,-59.457852508111
1.6848000288010,-60.323703073456
1.6871999502182,-61.147098103517
1.6895999908447,-61.926448338298
1.6920000314713,-62.661541186699
1.6943999528885,-63.353085675391
1.6967999935150,-64.002882477580
1.6992000341415,-64.614157329537
1.7015999555588,-65.191170528430
1.7039999961853,-65.739225659523
1.7064000368118,-66.264821235941
1.7087999582291,-66.774898972732
1.7111999988556,-67.276945593396
1.7136000394821,-67.778827495916
1.7159999608994,-68.287978603288
1.7184000015259,-68.811661761076
1.7208000421524,-69.356275450881
1.7231999635696,-69.927443024944
1.7256000041962,-70.529647748823
1.7280000448227,-71.166274166541
1.7303999662399,-71.839348592525
1.7328000068665,-72.549687284768
1.7352000474930,-73.297075054631
1.7375999689102,-74.080197117146
1.7400000095367,-74.896759237229
1.7424000501633,-75.744141052120
1.7447999715805,-76.618787317845
1.7472000122070,-77.517094802856
1.7496000528336,-78.435289347791
1.7519999742508,-79.369878255322
1.7544000148773,-80.317417129028
1.7568000555038,-81.275227969767
1.7591999769211,-82.240906889199
1.7616000175476,-83.213198041212
1.7640000581741,-84.191390618392
1.7663999795914,-85.175921348693
1.7688000202179,-86.168047399208
1.7711999416351,-87.169899462590
1.7735999822617,-88.184756446211
1.7760000228882,-89.216169600320
1.7783999443054,-90.268729014846
1.7807999849319,-91.347188518670
1.7832000255585,-92.456465921590
1.7855999469757,-93.601752116720
1.7879999876022,-94.787581761870
1.7904000282288,-96.018437212354
1.7927999496460,-97.298031623914
1.7951999902725,-98.629263140034
1.7976000308990,-100.01426118497
1.7999999523163,-101.45422997147
1.8023999929428,-102.94922144709
1.8048000335693,-104.49847178168
1.8071999549866,-106.10028847536
1.8095999956131,-107.75199179553
1.8120000362396,-109.45008675425
1.8143999576569,-111.19036258783
1.8167999982834,-112.96796245907
1.8192000389099,-114.77757960611
1.8215999603271,-116.61325944723
1.8240000009537,-118.46899706401
1.8264000415802,-120.33838877080
1.8287999629974,-122.21488782618
1.8312000036240,-124.09215487530
1.8336000442505,-125.96384296601
1.8359999656677,-127.82400412871
1.8384000062943,-129.66706321257
1.8408000469208,-131.48782856493
1.8431999683380,-133.28236248360
1.8456000089645,-135.04712126096
1.8480000495911,-136.77980276181
1.8503999710083,-138.47948112319
1.8528000116348,-140.14659768184
1.8552000522614,-141.78294490540
1.8575999736786,-143.39197453738
1.8600000143051,-144.97887016390
1.8624000549316,-146.55014219725
1.8647999763489,-148.11398373607
1.8672000169754,-149.67968211332
1.8696000576019,-151.25756448937
1.8719999790192,-152.85850827796
1.8744000196457,-154.49403594520
1.8767999410629,-156.17502836690
1.8791999816895,-157.91257137814
1.8816000223160,-159.71639917612
1.8839999437332,-161.59557460032
1.8863999843597,-163.55758826135
1.8888000249863,-165.60910305436
1.8911999464035,-167.75487627856
1.8935999870300,-169.99829257827
1.8960000276566,-172.34181145446
1.8983999490738,-174.78598141029
1.9007999897003,-177.33090995313
1.9032000303268,-179.97555930849
1.9055999517441,177.28187363893
1.9079999923706,174.44384810885
1.9104000329971,171.51320552798
1.9127999544144,168.49305977263
1.9151999950409,165.38674393969
1.9176000356674,162.19764704371
1.9199999570847,158.92899157289
1.9223999977112,155.58372979918
1.9248000383377,152.16513827512
1.9271999597549,148.67540099126
1.9296000003815,145.11660006328
1.9320000410080,141.49026216934
1.9343999624252,137.79726084208
1.9368000030518,134.03748840805
1.9392000436783,130.21006956944
1.9415999650955,126.31259877707
1.9440000057220,122.34147034096
1.9464000463486,118.29111461631
1.9487999677658,114.15344003503
1.9512000083923,109.91763019838
1.9536000490189,105.56871177908
1.9559999704361,101.08679636762
1.9584000110626,96.445109852380
1.9608000516891,91.607587239956
1.9631999731064,86.525489423216
1.9656000137329,81.133027802969
1.9680000543594,75.339607137238
1.9703999757767,69.020425098264
1.9728000164032,62.002487477493
1.9752000570297,54.048757834702
1.9775999784470,44.844505121692
1.9800000190735,34.008655205220
1.9823999404907,21.183091129814
1.9847999811172,6.2830059281778
1.9872000217438,-10.125403275430
1.9895999431610,-26.727462266091
1.9919999837875,-42.072766393769
1.9944000244141,-55.342783547685
1.9967999458313,-66.461568646432
1.9991999864578,-75.741117879389
2.0016000270844,-83.574853212344
2.0039999485016,-90.306796840504
2.0064001083374,-96.202506676134
2.0088000297546,-101.45956662280
2.0111999511719,-106.22299587147
2.0136001110077,-110.60032747611
2.0160000324249,-114.67210179544
2.0183999538422,-118.49996079961
2.0208001136780,-122.13187142864
2.0232000350952,-125.60521290651
2.0255999565125,-128.95058492786
2.0280001163483,-132.19235672599
2.0304000377655,-135.35052789217
2.0327999591827,-138.44181571982
2.0352001190186,-141.47944839400
2.0376000404358,-144.47456786449
2.0399999618530,-147.43635733818
2.0423998832703,-150.37191835179
2.0448000431061,-153.28725925874
2.0471999645233,-156.18654049861
2.0495998859406,-159.07303194589
2.0520000457764,-161.94903361519
2.0543999671936,-164.81607372338
2.0567998886108,-167.67458902388
