frequency,refcoef
0.60000002384186,-44.318529925895
0.60240000486374,-43.721765423734
0.60479998588562,-43.164930596439
0.60720002651215,-42.645979582917
0.60960000753403,-42.162471748303
0.61199998855591,-41.711674834520
0.61440002918243,-41.290603946798
0.61680001020432,-40.896036951838
0.61919999122620,-40.524519794522
0.62159997224808,-40.172363206569
0.62400001287460,-39.835644209544
0.62639999389648,-39.510234210632
0.62879997491837,-39.191842930825
0.63120001554489,-38.876092004785
0.63359999656677,-38.558634973509
0.63599997758865,-38.235301004901
0.63840001821518,-37.902265032808
0.64079999923706,-37.556235758129
0.64319998025894,-37.194626368045
0.64560002088547,-36.815694223154
0.64800000190735,-36.418619391207
0.65039998292923,-36.003517969022
0.65280002355576,-35.571380471221
0.65520000457764,-35.123943722087
0.65759998559952,-34.663519644211
0.66000002622604,-34.192804452413
0.66240000724792,-33.714690718469
0.66479998826981,-33.232097840755
0.66720002889633,-32.747832703802
0.66960000991821,-32.264492137151
0.67199999094009,-31.784395687521
0.67439997196198,-31.309546837354
0.67680001258850,-30.841624076702
0.67919999361038,-30.381984842639
0.68159997463226,-29.931683670638
0.68400001525879,-29.491490959894
0.68639999628067,-29.061926108191
0.68879997730255,-28.643284886427
0.69120001792908,-28.235660537579
0.69359999895096,-27.838976411836
0.69599997997284,-27.453007091544
0.69840002059937,-27.077400235400
0.70080000162125,-26.711695849479
0.70319998264313,-26.355349623689
0.70560002326965,-26.007745271054
0.70800000429153,-25.668212709372
0.71039998531342,-25.336045335274
0.71280002593994,-25.010515757778
0.71520000696182,-24.690889932849
0.71759998798370,-24.376442345598
0.72000002861023,-24.066472824550
0.72240000963211,-23.760317228578
0.72479999065399,-23.457362114111
0.72719997167587,-23.157057042877
0.72960001230240,-22.858923271237
0.73199999332428,-22.562565393272
0.73439997434616,-22.267670414698
0.73680001497269,-21.974019997779
0.73919999599457,-21.681483582586
0.74159997701645,-21.390020595869
0.74400001764297,-21.099676898339
0.74639999866486,-20.810574433404
0.74879997968674,-20.522908311731
0.75120002031326,-20.236930399795
0.75360000133514,-19.952944768975
0.75599998235703,-19.671293187515
0.75840002298355,-19.392342288297
0.76080000400543,-19.116477824668
0.76319998502731,-18.844085238568
0.76560002565384,-18.575550573682
0.76800000667572,-18.311241383424
0.77039998769760,-18.051508448024
0.77280002832413,-17.796670490415
0.77520000934601,-17.547016042429
0.77759999036789,-17.302793861245
0.77999997138977,-17.064215108155
0.78240001201630,-16.831445612968
0.78479999303818,-16.604605871597
0.78719997406006,-16.383773207298
0.78960001468658,-16.168977787228
0.79199999570847,-15.960206436065
0.79439997673035,-15.757400638789
0.79680001735687,-15.560460220692
0.79919999837875,-15.369242557249
0.80159997940063,-15.183567501053
0.80400002002716,-15.003221141599
0.80640000104904,-14.827952780834
0.80879998207092,-14.657487796177
0.81120002269745,-14.491521820603
0.81360000371933,-14.329732130458
0.81599998474121,-14.171779818087
0.81840002536774,-14.017315397638
0.82080000638962,-13.865984628423
0.82319998741150,-13.717431523318
0.82560002803802,-13.571308653877
0.82800000905991,-13.427279343960
0.83039999008179,-13.285027966064
0.83279997110367,-13.144258887673
0.83520001173019,-13.004708443311
0.83759999275208,-12.866145798929
0.83999997377396,-12.728379071799
0.84240001440048,-12.591258582234
0.84479999542236,-12.454677898752
0.84719997644424,-12.318574737464
0.84960001707077,-12.182934855176
0.85199999809265,-12.047788672303
0.85439997911453,-11.913210941361
0.85680001974106,-11.779313110931
0.85920000076294,-11.646250374492
0.86159998178482,-11.514206912169
0.86400002241135,-11.383396976703
0.86640000343323,-11.254056779142
0.86879998445511,-11.126443824633
0.87120002508163,-11.000824455835
0.87360000610352,-10.877474602113
0.87599998712540,-10.756671630768
0.87840002775192,-10.638689294253
0.88080000877380,-10.523795815406
0.88319998979568,-10.412246194210
0.88559997081757,-10.304280438963
0.88800001144409,-10.200120419615
0.89039999246597,-10.099967344456
0.89279997348785,-10.003998564883
0.89520001411438,-9.9123657844708
0.89759999513626,-9.8251957391655
0.89999997615814,-9.7425877759973
0.90240001678467,-9.6646082745043
0.90479999780655,-9.5913016766083
0.90719997882843,-9.5226796814739
0.90960001945496,-9.4587281609169
0.91200000047684,-9.3994032809092
0.91439998149872,-9.3446362122933
0.91680002212524,-9.2943320897385
0.91920000314713,-9.2483706986144
0.92159998416901,-9.2066089678549
0.92400002479553,-9.1688836123771
0.92640000581741,-9.1350119647703
0.92879998683929,-9.1047929507156
0.93120002746582,-9.0780139229876
0.93360000848770,-9.0544459241142
0.93599998950958,-9.0338565527549
0.93839997053146,-9.0160011751575
0.94080001115799,-9.0006362406898
0.94319999217987,-8.9875153012747
0.94559997320175,-8.9763985044465
0.94800001382828,-8.9670473349346
0.95039999485016,-8.9592355205834
0.95279997587204,-8.9527486320904
0.95520001649857,-8.9473869787071
0.95759999752045,-8.9429661901341
0.95999997854233,-8.9393223198180
0.96240001916885,-8.9363104088804
0.96480000019073,-8.9338098025898
0.96719998121262,-8.9317185716209
0.96960002183914,-8.9299598017670
0.97200000286102,-8.9284773974990
0.97439998388290,-8.9272353411346
0.97680002450943,-8.9262186914488
0.97920000553131,-8.9254280485375
0.98159998655319,-8.9248825374840
0.98400002717972,-8.9246117533091
0.98640000820160,-8.9246574399607
0.98879998922348,-8.9250686905019
0.99119997024536,-8.9258966669053
0.99360001087189,-8.9271973700324
0.99599999189377,-8.9290260052581
0.99839997291565,-8.9314306500832
1.0008000135422,-8.9344575559655
1.0032000541687,-8.9381419246690
1.0055999755859,-8.9425109175263
1.0080000162125,-8.9475795458425
1.0104000568390,-8.9533518514436
1.0127999782562,-8.9598156865350
1.0152000188828,-8.9669504144206
1.0176000595093,-8.9747204490211
1.0199999809265,-8.9830748463704
1.0224000215530,-8.9919570756198
1.0247999429703,-9.0012960761430
1.0271999835968,-9.0110160285617
1.0296000242233,-9.0210304810922
1.0319999456406,-9.0312524032491
1.0343999862671,-9.0415890254634
1.0368000268936,-9.0519507170173
1.0391999483109,-9.0622487388120
1.0415999889374,-9.0723990731430
1.0440000295639,-9.0823254843616
1.0463999509811,-9.0919599005010
1.0487999916077,-9.1012450225723
1.0512000322342,-9.1101354074278
1.0535999536514,-9.1186026189268
1.0559999942780,-9.1266255564828
1.0584000349045,-9.1342047464729
1.0607999563217,-9.1413515934392
1.0631999969482,-9.1480924645196
1.0656000375748,-9.1544684626201
1.0679999589920,-9.1605330325438
1.0703999996185,-9.1663494389326
1.0728000402451,-9.1719909465122
1.0751999616623,-9.1775399314183
1.0776000022888,-9.1830810992264
1.0800000429153,-9.1887064942291
1.0823999643326,-9.1945082944836
1.0848000049591,-9.2005748758920
1.0872000455856,-9.2069961256185
1.0895999670029,-9.2138555090123
1.0920000076294,-9.2212275941892
1.0944000482559,-9.2291823311361
1.0967999696732,-9.2377795856593
1.0992000102997,-9.2470677094062
1.1016000509262,-9.2570837371462
1.1039999723434,-9.2678542933819
1.1064000129700,-9.2793917362426
1.1088000535965,-9.2916992234491
1.1111999750137,-9.3047657937789
1.1136000156403,-9.3185700332831
1.1160000562668,-9.3330814737363
1.1183999776840,-9.3482563131118
1.1208000183105,-9.3640468355734
1.1232000589371,-9.3803938519560
1.1255999803543,-9.3972351965645
1.1280000209808,-9.4145029215617
1.1303999423981,-9.4321273694921
1.1327999830246,-9.4500346081445
1.1352000236511,-9.4681528730757
1.1375999450684,-9.4864126676563
1.1399999856949,-9.5047460113951
1.1424000263214,-9.5230858723346
1.1447999477386,-9.5413771229507
1.1471999883652,-9.5595636267677
1.1496000289917,-9.5776009158966
1.1519999504089,-9.5954459345537
1.1543999910355,-9.6130696029561
1.1568000316620,-9.6304456279607
1.1591999530792,-9.6475579615660
1.1615999937057,-9.6643958865056
1.1640000343323,-9.6809551136655
1.1663999557495,-9.6972400898620
1.1687999963760,-9.7132588079017
1.1712000370026,-9.7290253494700
1.1735999584198,-9.7445550387851
1.1759999990463,-9.7598700136620
1.1784000396729,-9.7749922317187
1.1807999610901,-9.7899429944921
1.1832000017166,-9.8047501343923
1.1856000423431,-9.8194338710760
1.1879999637604,-9.8340168720239
1.1904000043869,-9.8485210360956
1.1928000450134,-9.8629629742415
1.1951999664307,-9.8773574558986
1.1976000070572,-9.8917178659667
1.2000000476837,-9.9060516650426
1.2023999691010,-9.9203648606320
1.2048000097275,-9.9346594197476
1.2072000503540,-9.9489349547679
1.2095999717712,-9.9631852304164
1.2120000123978,-9.9774045499184
1.2144000530243,-9.9915832359265
1.2167999744415,-10.005710701842
1.2192000150681,-10.019775809172
1.2216000556946,-10.033765393006
1.2239999771118,-10.047665587687
1.2264000177383,-10.061465988766
1.2288000583649,-10.075154128742
1.2311999797821,-10.088724290950
1.2336000204086,-10.102166900737
1.2359999418259,-10.115481117129
1.2383999824524,-10.128666263347
1.2408000230789,-10.141727332159
1.2431999444962,-10.154674117255
1.2455999851227,-10.167521128640
1.2480000257492,-10.180288025264
1.2503999471664,-10.193000551542
1.2527999877930,-10.205691210183
1.2552000284195,-10.218396133328
1.2575999498367,-10.231160560357
1.2599999904633,-10.244031635520
1.2624000310898,-10.257068605732
1.2647999525070,-10.270329535931
1.2671999931335,-10.283883368859
1.2696000337601,-10.297801983395
1.2719999551773,-10.312160932933
1.2743999958038,-10.327041518702
1.2768000364304,-10.342529296657
1.2791999578476,-10.358712743176
1.2815999984741,-10.375681455532
1.2840000391006,-10.393528481093
1.2863999605179,-10.412347039158
1.2888000011444,-10.432231505838
1.2912000417709,-10.453274545190
1.2935999631882,-10.475569130514
1.2960000038147,-10.499207440129
1.2984000444412,-10.524274917956
1.3007999658585,-10.550856778333
1.3032000064850,-10.579034192201
1.3056000471115,-10.608881809669
1.3079999685287,-10.640469996285
1.3104000091553,-10.673862860767
1.3128000497818,-10.709117862299
1.3151999711990,-10.746283700410
1.3176000118256,-10.785403512694
1.3200000524521,-10.826512013029
1.3223999738693,-10.869636310781
1.3248000144958,-10.914793169121
1.3272000551224,-10.961993136113
1.3295999765396,-11.011237577790
1.3320000171661,-11.062518693143
1.3344000577927,-11.115820809508
1.3367999792099,-11.171122682348
1.3392000198364,-11.228392817095
1.3415999412537,-11.287593149642
1.3439999818802,-11.348680844409
1.3464000225067,-11.411606045259
1.3487999439240,-11.476313567864
1.3511999845505,-11.542742732163
1.3536000251770,-11.610832774875
1.3559999465942,-11.680514242636
1.3583999872208,-11.751723077646
1.3608000278473,-11.824387903171
1.3631999492645,-11.898436845844
1.3655999898911,-11.973802109940
1.3680000305176,-12.050413257868
1.3703999519348,-12.128203257758
1.3727999925613,-12.207107093857
1.3752000331879,-12.287059226384
1.3775999546051,-12.368000947742
1.3799999952316,-12.449873659528
1.3824000358582,-12.532623223049
1.3847999572754,-12.616196944084
1.3871999979019,-12.700547757780
1.3896000385284,-12.785629190664
1.3919999599457,-12.871397757865
1.3944000005722,-12.957813002960
1.3968000411987,-13.044834856367
1.3991999626160,-13.132425679320
1.4016000032425,-13.220548129686
1.4040000438690,-13.309165239017
1.4063999652863,-13.398240390588
1.4088000059128,-13.487735801204
1.4112000465393,-13.577612221927
1.4135999679565,-13.667831398739
1.4160000085831,-13.758351422138
1.4184000492096,-13.849130200804
1.4207999706268,-13.940123934397
1.4232000112534,-14.031286786445
1.4256000518799,-14.122573922060
1.4279999732971,-14.213937988980
1.4304000139236,-14.305331164877
1.4328000545502,-14.396705100304
1.4351999759674,-14.488014929484
1.4376000165939,-14.579212322747
1.4400000572205,-14.670255386356
1.4423999786377,-14.761101191121
1.4448000192642,-14.851709135957
1.4471999406815,-14.942043294373
1.4495999813080,-15.032069183780
1.4520000219345,-15.121756983229
1.4543999433517,-15.211078333877
1.4567999839783,-15.300009235896
1.4592000246048,-15.388526146851
1.4615999460220,-15.476610485152
1.4639999866486,-15.564243412589
1.4664000272751,-15.651407494017
1.4687999486923,-15.738083702838
1.4711999893188,-15.824253959264
1.4736000299454,-15.909898256261
1.4759999513626,-15.994991438526
1.4783999919891,-16.079507322818
1.4808000326157,-16.163414497693
1.4831999540329,-16.246674577858
1.4855999946594,-16.329247238189
1.4880000352859,-16.411083805402
1.4903999567032,-16.492130591833
1.4927999973297,-16.572327312059
1.4952000379562,-16.651611962609
1.4975999593735,-16.729912837837
1.5000000000000,-16.807162593917
1.5024000406265,-16.883284873232
1.5047999620438,-16.958208954850
1.5072000026703,-17.031860206403
1.5096000432968,-17.104171280706
1.5119999647141,-17.175080382937
1.5144000053406,-17.244528894051
1.5168000459671,-17.312470896991
1.5191999673843,-17.378868124538
1.5216000080109,-17.443695279137
1.5240000486374,-17.506940087104
1.5263999700546,-17.568605207271
1.5288000106812,-17.628703188057
1.5312000513077,-17.687263917700
1.5335999727249,-17.744328300176
1.5360000133514,-17.799952270771
1.5384000539780,-17.854199886468
1.5407999753952,-17.907145192348
1.5432000160217,-17.958871177382
1.5456000566483,-18.009464582052
1.5479999780655,-18.059013984164
1.5504000186920,-18.107609374584
1.5528000593185,-18.155337761466
1.5551999807358,-18.202282212943
1.5576000213623,-18.248518739879
1.5599999427795,-18.294113670234
1.5623999834061,-18.339123992778
1.5648000240326,-18.383594922291
1.5671999454498,-18.427559017244
1.5695999860764,-18.471034706085
1.5720000267029,-18.514029657285
1.5743999481201,-18.556536888217
1.5767999887466,-18.598537995659
1.5792000293732,-18.640005909034
1.5815999507904,-18.680901833691
1.5839999914169,-18.721180451540
1.5864000320435,-18.760792457898
1.5887999534607,-18.799685058952
1.5911999940872,-18.837802084058
1.5936000347137,-18.875093277104
1.5959999561310,-18.911506629755
1.5983999967575,-18.946998010770
1.6008000373840,-18.981528150991
1.6031999588013,-19.015067265733
1.6055999994278,-19.047591480592
1.6080000400543,-19.079086867544
1.6103999614716,-19.109548711599
1.6128000020981,-19.138976311571
1.6152000427246,-19.167380606117
1.6175999641418,-19.194775556647
1.6200000047684,-19.221178436128
1.6224000453949,-19.246610672901
1.6247999668121,-19.271092435451
1.6272000074387,-19.294642213620
1.6296000480652,-19.317274302257
1.6319999694824,-19.338999925504
1.6344000101089,-19.359820516726
1.6368000507355,-19.379730915137
1.6391999721527,-19.398716941694
1.6416000127792,-19.416754622347
1.6440000534058,-19.433812657956
1.6463999748230,-19.449851133867
1.6488000154495,-19.464822238948
1.6512000560760,-19.478672400028
1.6535999774933,-19.491346143305
1.6560000181198,-19.502786759529
1.6584000587463,-19.512935834428
1.6607999801636,-19.521742064709
1.6632000207901,-19.529159029149
1.6655999422073,-19.535148135149
1.6679999828339,-19.539683050435
1.6704000234604,-19.542749409385
1.6727999448776,-19.544347802190
1.6751999855042,-19.544491329283
1.6776000261307,-19.543210184096
1.6799999475479,-19.540546100606
1.6823999881744,-19.536556735822
1.6848000288010,-19.531309862974
1.6871999502182,-19.524880622743
1.6895999908447,-19.517353609603
1.6920000314713,-19.508813537302
1.6943999528885,-19.499347237172
1.6967999935150,-19.489034798311
1.6992000341415,-19.477952761699
1.7015999555588,-19.466165116942
1.7039999961853,-19.453722022113
1.7064000368118,-19.440658695051
1.7087999582291,-19.426992660693
1.7111999988556,-19.412721765116
1.7136000394821,-19.397823158972
1.7159999608994,-19.382257055538
1.7184000015259,-19.365960853322
1.7208000421524,-19.348857754605
1.7231999635696,-19.330854535073
1.7256000041962,-19.311848112102
1.7280000448227,-19.291723425585
1.7303999662399,-19.270364212662
1.7328000068665,-19.247653225654
1.7352000474930,-19.223478142196
1.7375999689102,-19.197733395788
1.7400000095367,-19.170328603210
1.7424000501633,-19.141187918638
1.7447999715805,-19.110254995778
1.7472000122070,-19.077496619894
1.7496000528336,-19.042900038196
1.7519999742508,-19.006477189279
1.7544000148773,-18.968262067562
1.7568000555038,-18.928309499400
1.7591999769211,-18.886692563324
1.7616000175476,-18.843498709740
1.7640000581741,-18.798825746927
1.7663999795914,-18.752778988981
1.7688000202179,-18.705463906864
1.7711999416351,-18.656982005651
1.7735999822617,-18.607426907087
1.7760000228882,-18.556879415785
1.7783999443054,-18.505403252262
1.7807999849319,-18.453042144529
1.7832000255585,-18.399818706187
1.7855999469757,-18.345732480576
1.7879999876022,-18.290760826176
1.7904000282288,-18.234860219967
1.7927999496460,-18.177968866846
1.7951999902725,-18.120008204230
1.7976000308990,-18.060894800020
1.7999999523163,-18.000539201775
1.8023999929428,-17.938856276735
1.8048000335693,-17.875773670684
1.8071999549866,-17.811238023017
1.8095999956131,-17.745222380743
1.8120000362396,-17.677739218662
1.8143999576569,-17.608839904001
1.8167999982834,-17.538626657418
1.8192000389099,-17.467257736482
1.8215999603271,-17.394945924052
1.8240000009537,-17.321968192135
1.8264000415802,-17.248660637475
1.8287999629974,-17.175419873729
1.8312000036240,-17.102701457490
1.8336000442505,-17.031014935337
1.8359999656677,-16.960917498326
1.8384000062943,-16.893013052825
1.8408000469208,-16.827938757801
1.8431999683380,-16.766367126386
1.8456000089645,-16.708992728017
1.8480000495911,-16.656527700789
1.8503999710083,-16.609698692112
1.8528000116348,-16.569237852522
1.8552000522614,-16.535880749934
1.8575999736786,-16.510361012854
1.8600000143051,-16.493409586143
1.8624000549316,-16.485752749314
1.8647999763489,-16.488108291331
1.8672000169754,-16.501187658235
1.8696000576019,-16.525697247839
1.8719999790192,-16.562338360130
1.8744000196457,-16.611808356695
1.8767999410629,-16.674805815428
1.8791999816895,-16.752031686835
1.8816000223160,-16.844195189351
1.8839999437332,-16.952016391029
1.8863999843597,-17.076231815860
1.8888000249863,-17.217600994242
1.8911999464035,-17.376912440684
1.8935999870300,-17.554991853547
1.8960000276566,-17.752708853834
1.8983999490738,-17.970983629880
1.9007999897003,-18.210801628996
1.9032000303268,-18.473224152592
1.9055999517441,-18.759395422955
1.9079999923706,-19.070562550368
1.9104000329971,-19.408087977138
1.9127999544144,-19.773463098303
1.9151999950409,-20.168330215002
1.9176000356674,-20.594497999958
1.9199999570847,-21.053954426725
1.9223999977112,-21.548879447916
1.9248000383377,-22.081642690319
1.9271999597549,-22.654783983550
1.9296000003815,-23.270947317568
1.9320000410080,-23.932748162448
1.9343999624252,-24.642503006191
1.9368000030518,-25.401733775837
1.9392000436783,-26.210256745231
1.9415999650955,-27.064587486623
1.9440000057220,-27.955231712377
1.9464000463486,-28.862381397560
1.9487999677658,-29.749953624602
1.9512000083923,-30.559648935157
1.9536000490189,-31.210870150951
1.9559999704361,-31.616392212913
1.9584000110626,-31.716887571362
1.9608000516891,-31.513525521709
1.9631999731064,-31.067072665111
1.9656000137329,-30.464481230083
1.9680000543594,-29.784943890320
1.9703999757767,-29.085093624547
1.9728000164032,-28.399531576165
1.9752000570297,-27.746845976675
1.9775999784470,-27.135523717784
1.9800000190735,-26.568168037422
1.9823999404907,-26.044155990945
1.9847999811172,-25.561194074519
1.9872000217438,-25.116213781575
1.9895999431610,-24.705853616355
1.9919999837875,-24.326735957205
1.9944000244141,-23.975598053863
1.9967999458313,-23.649368282515
1.9991999864578,-23.345193573690
2.0016000270844,-23.060454560900
2.0039999485016,-22.792767958355
2.0064001083374,-22.539979139042
2.0088000297546,-22.300161842072
2.0111999511719,-22.071612970806
2.0136001110077,-21.852840316251
2.0160000324249,-21.642565233617
2.0183999538422,-21.439702514127
2.0208001136780,-21.243357345002
2.0232000350952,-21.052815624853
2.0255999565125,-20.867522546851
2.0280001163483,-20.687076813119
2.0304000377655,-20.511206514508
2.0327999591827,-20.339756782075
2.0352001190186,-20.172669510353
2.0376000404358,-20.009966049829
