frequency,refcoef
0.60000002384186,-0.022581054071985
0.60240000486374,-0.022006459328468
0.60479998588562,-0.022364335761838
0.60720002651215,-0.023708343968145
0.60960000753403,-0.026057198338296
0.61199998855591,-0.029401785852245
0.61440002918243,-0.033702049261545
0.61680001020432,-0.038890492121355
0.61919999122620,-0.044878037950744
0.62159997224808,-0.051555417853352
0.62400001287460,-0.058797184831050
0.62639999389648,-0.066471713626409
0.62879997491837,-0.074439602455063
0.63120001554489,-0.082568432965970
0.63359999656677,-0.090727973744857
0.63599997758865,-0.098804573972476
0.63840001821518,-0.10669971852685
0.64079999923706,-0.11433730155148
0.64319998025894,-0.12166346566338
0.64560002088547,-0.12865435573826
0.64800000190735,-0.13531172860975
0.65039998292923,-0.14166622119733
0.65280002355576,-0.14777285118209
0.65520000457764,-0.15371447547654
0.65759998559952,-0.15959432959984
0.66000002622604,-0.16553322397218
0.66240000724792,-0.17166756781200
0.66479998826981,-0.17813976983435
0.66720002889633,-0.18509938817964
0.66960000991821,-0.19269318301955
0.67199999094009,-0.20106339373190
0.67439997196198,-0.21034058216378
0.67680001258850,-0.22064242822630
0.67919999361038,-0.23206764702374
0.68159997463226,-0.24469560021343
0.68400001525879,-0.25858059589184
0.68639999628067,-0.27375559660783
0.68879997730255,-0.29022641010190
0.69120001792908,-0.30797603234070
0.69359999895096,-0.32696468614371
0.69599997997284,-0.34712861773895
0.69840002059937,-0.36838923010648
0.70080000162125,-0.39064740968891
0.70319998264313,-0.41379526035151
0.70560002326965,-0.43771555302859
0.70800000429153,-0.46228579546760
0.71039998531342,-0.48738383233534
0.71280002593994,-0.51289325061197
0.71520000696182,-0.53870316440366
0.71759998798370,-0.56471701224646
0.72000002861023,-0.59085160487389
0.72240000963211,-0.61704213607746
0.72479999065399,-0.64324190981842
0.72719997167587,-0.66942711773290
0.72960001230240,-0.69559374899432
0.73199999332428,-0.72175769797507
0.73439997434616,-0.74795606014999
0.73680001497269,-0.77424183492833
0.73919999599457,-0.80068372099709
0.74159997701645,-0.82736402701455
0.74400001764297,-0.85437242535589
0.74639999866486,-0.88180699439221
0.74879997968674,-0.90976549169196
0.75120002031326,-0.93834589093636
0.75360000133514,-0.96764317572125
0.75599998235703,-0.99774544412769
0.75840002298355,-1.0287301801110
0.76080000400543,-1.0606684951350
0.76319998502731,-1.0936156126120
0.76560002565384,-1.1276170503479
0.76800000667572,-1.1627095906012
0.77039998769760,-1.1989161423599
0.77280002832413,-1.2362526436869
0.77520000934601,-1.2747289362688
0.77759999036789,-1.3143525044109
0.77999997138977,-1.3551287634789
0.78240001201630,-1.3970694231674
0.78479999303818,-1.4401907216333
0.78719997406006,-1.4845215147989
0.78960001468658,-1.5301066048111
0.79199999570847,-1.5770063967248
0.79439997673035,-1.6253051028354
0.79680001735687,-1.6751106059143
0.79919999837875,-1.7265568616351
0.80159997940063,-1.7798031535220
0.80400002002716,-1.8350423956666
0.80640000104904,-1.8924906237543
0.80879998207092,-1.9523923729430
0.81120002269745,-2.0150200229696
0.81360000371933,-2.0806698717108
0.81599998474121,-2.1496564128144
0.81840002536774,-2.2223141678308
0.82080000638962,-2.2989933194751
0.82319998741150,-2.3800521826002
0.82560002803802,-2.4658583193720
0.82800000905991,-2.5567807898865
0.83039999008179,-2.6531860178930
0.83279997110367,-2.7554385241095
0.83520001173019,-2.8638911624913
0.83759999275208,-2.9788846159851
0.83999997377396,-3.1007460338033
0.84240001440048,-3.2297787066334
0.84479999542236,-3.3662696222180
0.84719997644424,-3.5104754709069
0.84960001707077,-3.6626285090974
0.85199999809265,-3.8229313204499
0.85439997911453,-3.9915541615521
0.85680001974106,-4.1686308043846
0.85920000076294,-4.3542630055303
0.86159998178482,-4.5485098541635
0.86400002241135,-4.7513955297446
0.86640000343323,-4.9628968236109
0.86879998445511,-5.1829506586434
0.87120002508163,-5.4114472686857
0.87360000610352,-5.6482273232834
0.87599998712540,-5.8930839017372
0.87840002775192,-6.1457577944256
0.88080000877380,-6.4059379376128
0.88319998979568,-6.6732571499178
0.88559997081757,-6.9472938164390
0.88800001144409,-7.2275656862778
0.89039999246597,-7.5135357345622
0.89279997348785,-7.8046050794090
0.89520001411438,-8.1001174649812
0.89759999513626,-8.3993569612806
0.89999997615814,-8.7015523356437
0.90240001678467,-9.0058703800315
0.90479999780655,-9.3114302316902
0.90719997882843,-9.6172972467860
0.90960001945496,-9.9224897530784
0.91200000047684,-10.225984290975
0.91439998149872,-10.526720789932
0.91680002212524,-10.823613220062
0.91920000314713,-11.115552154545
0.92159998416901,-11.401411415544
0.92400002479553,-11.680067681145
0.92640000581741,-11.950406542171
0.92879998683929,-12.211330136769
0.93120002746582,-12.461781623564
0.93360000848770,-12.700748188469
0.93599998950958,-12.927285944195
0.93839997053146,-13.140528523468
0.94080001115799,-13.339707677338
0.94319999217987,-13.524163968592
0.94559997320175,-13.693364758579
0.94800001382828,-13.846909937453
0.95039999485016,-13.984542909281
0.95279997587204,-14.106150140081
0.95520001649857,-14.211762390010
0.95759999752045,-14.301547087612
0.95999997854233,-14.375799265629
0.96240001916885,-14.434920508091
0.96480000019073,-14.479410354796
0.96719998121262,-14.509833180815
0.96960002183914,-14.526806837593
0.97200000286102,-14.530975740862
0.97439998388290,-14.522993898645
0.97680002450943,-14.503507451856
0.97920000553131,-14.473137641776
0.98159998655319,-14.432478530333
0.98400002717972,-14.382085650750
0.98640000820160,-14.322480359815
0.98879998922348,-14.254145482715
0.99119997024536,-14.177540386447
0.99360001087189,-14.093102129759
0.99599999189377,-14.001261352170
0.99839997291565,-13.902446398882
1.0008000135422,-13.797099601399
1.0032000541687,-13.685683102796
1.0055999755859,-13.568687428077
1.0080000162125,-13.446636301983
1.0104000568390,-13.320088792350
1.0127999782562,-13.189638849598
1.0152000188828,-13.055910791881
1.0176000595093,-12.919556421503
1.0199999809265,-12.781243643494
1.0224000215530,-12.641651532099
1.0247999429703,-12.501455183396
1.0271999835968,-12.361321471967
1.0296000242233,-12.221892729302
1.0319999456406,-12.083781026740
1.0343999862671,-11.947554843554
1.0368000268936,-11.813738462476
1.0391999483109,-11.682798904006
1.0415999889374,-11.555141078873
1.0440000295639,-11.431109140394
1.0463999509811,-11.310980563799
1.0487999916077,-11.194966695947
1.0512000322342,-11.083210501259
1.0535999536514,-10.975792646550
1.0559999942780,-10.872728704020
1.0584000349045,-10.773980615883
1.0607999563217,-10.679453021873
1.0631999969482,-10.589005903010
1.0656000375748,-10.502455015576
1.0679999589920,-10.419584712099
1.0703999996185,-10.340151583594
1.0728000402451,-10.263894270246
1.0751999616623,-10.190541431998
1.0776000022888,-10.119819275616
1.0800000429153,-10.051460391645
1.0823999643326,-9.9852152583753
1.0848000049591,-9.9208515122859
1.0872000455856,-9.8581680930335
1.0895999670029,-9.7969964533779
1.0920000076294,-9.7372055741203
1.0944000482559,-9.6787049576531
1.0967999696732,-9.6214486289375
1.0992000102997,-9.5654278956637
1.1016000509262,-9.5106789977358
1.1039999723434,-9.4572715548358
1.1064000129700,-9.4053099517942
1.1088000535965,-9.3549269194954
1.1111999750137,-9.3062725871152
1.1136000156403,-9.2595177504821
1.1160000562668,-9.2148362542856
1.1183999776840,-9.1724044435870
1.1208000183105,-9.1323931580380
1.1232000589371,-9.0949589953186
1.1255999803543,-9.0602427940000
1.1280000209808,-9.0283575417760
1.1303999423981,-8.9993910953623
1.1327999830246,-8.9734001357630
1.1352000236511,-8.9504053739156
1.1375999450684,-8.9303935839675
1.1399999856949,-8.9133154928337
1.1424000263214,-8.8990858581990
1.1447999477386,-8.8875888847647
1.1471999883652,-8.8786763530512
1.1496000289917,-8.8721754192200
1.1519999504089,-8.8678890246795
1.1543999910355,-8.8656042905168
1.1568000316620,-8.8651010852711
1.1591999530792,-8.8661515014781
1.1615999937057,-8.8685298411686
1.1640000343323,-8.8720210958071
1.1663999557495,-8.8764249403622
1.1687999963760,-8.8815641950040
1.1712000370026,-8.8872855480711
1.1735999584198,-8.8934679453792
1.1759999990463,-8.9000263656157
1.1784000396729,-8.9069095204612
1.1807999610901,-8.9141049180760
1.1832000017166,-8.9216368309208
1.1856000423431,-8.9295633804378
1.1879999637604,-8.9379739383209
1.1904000043869,-8.9469854091614
1.1928000450134,-8.9567369753848
1.1951999664307,-8.9673814901821
1.1976000070572,-8.9790839119060
1.2000000476837,-8.9920092831910
1.2023999691010,-9.0063204242189
1.2048000097275,-9.0221650765946
1.2072000503540,-9.0396798785385
1.2095999717712,-9.0589764613412
1.2120000123978,-9.0801364935686
1.2144000530243,-9.1032141253363
1.2167999744415,-9.1282283977291
1.2192000150681,-9.1551623032171
1.2216000556946,-9.1839654438748
1.2239999771118,-9.2145472600872
1.2264000177383,-9.2467844259248
1.2288000583649,-9.2805224587482
1.2311999797821,-9.3155793144119
1.2336000204086,-9.3517451357828
1.2359999418259,-9.3887949712246
1.2383999824524,-9.4264884071156
1.2408000230789,-9.4645792329473
1.2431999444962,-9.5028182181392
1.2455999851227,-9.5409605097238
1.2480000257492,-9.5787710257816
1.2503999471664,-9.6160296247498
1.2527999877930,-9.6525326165921
1.2552000284195,-9.6880983173897
1.2575999498367,-9.7225653627537
1.2599999904633,-9.7557951913025
1.2624000310898,-9.7876669951650
1.2647999525070,-9.8180799222425
1.2671999931335,-9.8469422710137
1.2696000337601,-9.8741682698546
1.2719999551773,-9.8996770614174
1.2743999958038,-9.9233763443414
1.2768000364304,-9.9451633193995
1.2791999578476,-9.9649116776375
1.2815999984741,-9.9824717996994
1.2840000391006,-9.9976617561109
1.2863999605179,-10.010262447365
1.2888000011444,-10.020017729534
1.2912000417709,-10.026637256389
1.2935999631882,-10.029792446640
1.2960000038147,-10.029127498113
1.2984000444412,-10.024262323378
1.3007999658585,-10.014806423327
1.3032000064850,-10.000363217053
1.3056000471115,-9.9805500008880
1.3079999685287,-9.9550124037475
1.3104000091553,-9.9234308622449
1.3128000497818,-9.8855413453991
1.3151999711990,-9.8411478939584
1.3176000118256,-9.7901274199160
1.3200000524521,-9.7324441555393
1.3223999738693,-9.6681515059833
1.3248000144958,-9.5973909896345
1.3272000551224,-9.5203946916894
1.3295999765396,-9.4374741826961
1.3320000171661,-9.3490127196237
1.3344000577927,-9.2554559513045
1.3367999792099,-9.1572982598815
1.3392000198364,-9.0550635523953
1.3415999412537,-8.9492963612880
1.3439999818802,-8.8405455177232
1.3464000225067,-8.7293497719128
1.3487999439240,-8.6162251683664
1.3511999845505,-8.5016604652703
1.3536000251770,-8.3861022169606
1.3559999465942,-8.2699551058491
1.3583999872208,-8.1535721952080
1.3608000278473,-8.0372567067094
1.3631999492645,-7.9212625855051
1.3655999898911,-7.8057933368509
1.3680000305176,-7.6910058473825
1.3703999519348,-7.5770189163093
1.3727999925613,-7.4639082925370
1.3752000331879,-7.3517243484151
1.3775999546051,-7.2404901243611
1.3799999952316,-7.1302097614811
1.3824000358582,-7.0208740844704
1.3847999572754,-6.9124724265337
1.3871999979019,-6.8049872597590
1.3896000385284,-6.6984105265334
1.3919999599457,-6.5927400016939
1.3944000005722,-6.4879888567505
1.3968000411987,-6.3841820861831
1.3991999626160,-6.2813627540579
1.4016000032425,-6.1795931196444
1.4040000438690,-6.0789479838634
1.4063999652863,-5.9795230432746
1.4088000059128,-5.8814236196374
1.4112000465393,-5.7847696858711
1.4135999679565,-5.6896878330134
1.4160000085831,-5.5963114990660
1.4184000492096,-5.5047719016043
1.4207999706268,-5.4152003152564
1.4232000112534,-5.3277227548829
1.4256000518799,-5.2424537841083
1.4279999732971,-5.1594931382820
1.4304000139236,-5.0789302212524
1.4328000545502,-5.0008325475379
1.4351999759674,-4.9252483345522
1.4376000165939,-4.8522047775062
1.4400000572205,-4.7817080095590
1.4423999786377,-4.7137404178705
1.4448000192642,-4.6482673964387
1.4471999406815,-4.5852291213156
1.4495999813080,-4.5245487722847
1.4520000219345,-4.4661328695834
1.4543999433517,-4.4098767576029
1.4567999839783,-4.3556598412770
1.4592000246048,-4.3033566358500
1.4615999460220,-4.2528356429216
1.4639999866486,-4.2039662318523
1.4664000272751,-4.1566167161158
1.4687999486923,-4.1106620982345
1.4711999893188,-4.0659882624191
1.4736000299454,-4.0224896653544
1.4759999513626,-3.9800739619275
1.4783999919891,-3.9386659854479
1.4808000326157,-3.8982072586375
1.4831999540329,-3.8586523626431
1.4855999946594,-3.8199803003078
1.4880000352859,-3.7821810308690
1.4903999567032,-3.7452616425455
1.4927999973297,-3.7092417944843
1.4952000379562,-3.6741555817017
1.4975999593735,-3.6400420637576
1.5000000000000,-3.6069497299386
1.5024000406265,-3.5749284047937
1.5047999620438,-3.5440277310103
1.5072000026703,-3.5142933898289
1.5096000432968,-3.4857664370347
1.5119999647141,-3.4584771932171
1.5144000053406,-3.4324480704640
1.5168000459671,-3.4076839529361
1.5191999673843,-3.3841795737423
1.5216000080109,-3.3619114076414
1.5240000486374,-3.3408416470128
1.5263999700546,-3.3209170871395
1.5288000106812,-3.3020693223443
1.5312000513077,-3.2842202189072
1.5335999727249,-3.2672758241758
1.5360000133514,-3.2511364714532
1.5384000539780,-3.2356989350588
1.5407999753952,-3.2208536788222
1.5432000160217,-3.2064945374176
1.5456000566483,-3.1925190564019
1.5479999780655,-3.1788311248641
1.5504000186920,-3.1653493048509
1.5528000593185,-3.1520015008342
1.5551999807358,-3.1387353372324
1.5576000213623,-3.1255160185620
1.5599999427795,-3.1123270385503
1.5623999834061,-3.0991737744998
1.5648000240326,-3.0860826087474
1.5671999454498,-3.0730967740918
1.5695999860764,-3.0602812897598
1.5720000267029,-3.0477144175789
1.5743999481201,-3.0354908646787
1.5767999887466,-3.0237120681156
1.5792000293732,-3.0124895037685
1.5815999507904,-3.0019356287284
1.5839999914169,-2.9921637469822
1.5864000320435,-2.9832804625652
1.5887999534607,-2.9753857474471
1.5911999940872,-2.9685675897614
1.5936000347137,-2.9628969492039
1.5959999561310,-2.9584294844621
1.5983999967575,-2.9551997059782
1.6008000373840,-2.9532217576811
1.6031999588013,-2.9524875177834
1.6055999994278,-2.9529658157100
1.6080000400543,-2.9546046580653
1.6103999614716,-2.9573313292563
1.6128000020981,-2.9610579296607
1.6152000427246,-2.9656750110041
1.6175999641418,-2.9710656439741
1.6200000047684,-2.9771023615218
1.6224000453949,-2.9836536807153
1.6247999668121,-2.9905867279976
1.6272000074387,-2.9977746965289
1.6296000480652,-3.0050968982053
1.6319999694824,-3.0124478659858
1.6344000101089,-3.0197378337773
1.6368000507355,-3.0268984415169
1.6391999721527,-3.0338807003192
1.6416000127792,-3.0406637591509
1.6440000534058,-3.0472542936469
1.6463999748230,-3.0536789835034
1.6488000154495,-3.0599957418414
1.6512000560760,-3.0662835136487
1.6535999774933,-3.0726434049959
1.6560000181198,-3.0791926571737
1.6584000587463,-3.0860653014806
1.6607999801636,-3.0934031854668
1.6632000207901,-3.1013546747956
1.6655999422073,-3.1100659602257
1.6679999828339,-3.1196821681504
1.6704000234604,-3.1303348675821
1.6727999448776,-3.1421441724704
1.6751999855042,-3.1552139161669
1.6776000261307,-3.1696249020547
1.6799999475479,-3.1854346433563
1.6823999881744,-3.2026768919051
1.6848000288010,-3.2213580284175
1.6871999502182,-3.2414579302690
1.6895999908447,-3.2629322640497
1.6920000314713,-3.2857131810628
1.6943999528885,-3.3097105907212
1.6967999935150,-3.3348190191495
1.6992000341415,-3.3609174930245
1.7015999555588,-3.3878780563749
1.7039999961853,-3.4155711046973
1.7064000368118,-3.4438688476616
1.7087999582291,-3.4726528747208
1.7111999988556,-3.5018195651760
1.7136000394821,-3.5312853848553
1.7159999608994,-3.5609929406452
1.7184000015259,-3.5909139114530
1.7208000421524,-3.6210541548540
1.7231999635696,-3.6514545571514
1.7256000041962,-3.6821943481103
1.7280000448227,-3.7133882449075
1.7303999662399,-3.7451889361238
1.7328000068665,-3.7777781408678
1.7352000474930,-3.8113726320104
1.7375999689102,-3.8462099871370
1.7400000095367,-3.8825483182283
1.7424000501633,-3.9206600727437
1.7447999715805,-3.9608260714402
1.7472000122070,-4.0033225183988
1.7496000528336,-4.0484250755206
1.7519999742508,-4.0963945927293
1.7544000148773,-4.1474714183914
1.7568000555038,-4.2018737258604
1.7591999769211,-4.2597933306616
1.7616000175476,-4.3213879557910
1.7640000581741,-4.3867805360341
1.7663999795914,-4.4560605629632
1.7688000202179,-4.5292798725326
1.7711999416351,-4.6064575605786
1.7735999822617,-4.6875798275025
1.7760000228882,-4.7726072310295
1.7783999443054,-4.8614772460063
1.7807999849319,-4.9541146899857
1.7832000255585,-5.0504400960234
1.7855999469757,-5.1503777261015
1.7879999876022,-5.2538691800184
1.7904000282288,-5.3608843633898
1.7927999496460,-5.4714383829385
1.7951999902725,-5.5855996750538
1.7976000308990,-5.7035068745595
1.7999999523163,-5.8253840670342
1.8023999929428,-5.9515494268581
1.8048000335693,-6.0824263099055
1.8071999549866,-6.2185585648104
1.8095999956131,-6.3606154181648
1.8120000362396,-6.5093973904173
1.8143999576569,-6.6658449171943
1.8167999982834,-6.8310401339777
1.8192000389099,-7.0062139503163
1.8215999603271,-7.1927424375876
1.8240000009537,-7.3921577031822
1.8264000415802,-7.6061447521990
1.8287999629974,-7.8365518387076
1.8312000036240,-8.0853917299689
1.8336000442505,-8.3548527423884
1.8359999656677,-8.6473053932176
1.8384000062943,-8.9653134775800
1.8408000469208,-9.3116380743642
1.8431999683380,-9.6892387350114
1.8456000089645,-10.101255217277
1.8480000495911,-10.550957885468
1.8503999710083,-11.041643039971
1.8528000116348,-11.576409187965
1.8552000522614,-12.157745406586
1.8575999736786,-12.786761722796
1.8600000143051,-13.461820046190
1.8624000549316,-14.176156270375
1.8647999763489,-14.913988651113
1.8672000169754,-15.644770279598
1.8696000576019,-16.316555118208
1.8719999790192,-16.853018011282
1.8744000196457,-17.163876042122
1.8767999410629,-17.176227324143
1.8791999816895,-16.872932340927
1.8816000223160,-16.303255372322
1.8839999437332,-15.554203079797
1.8863999843597,-14.712014193733
1.8888000249863,-13.841374111285
1.8911999464035,-12.983132070164
1.8935999870300,-12.160014172341
1.8960000276566,-11.383097692488
1.8983999490738,-10.656626442563
1.9007999897003,-9.9810850808719
1.9032000303268,-9.3550083688307
1.9055999517441,-8.7760119022434
1.9079999923706,-8.2413606747467
1.9104000329971,-7.7482646226391
1.9127999544144,-7.2940377409528
1.9151999950409,-6.8761622885522
1.9176000356674,-6.4923192443840
1.9199999570847,-6.1403872046263
1.9223999977112,-5.8184312618677
1.9248000383377,-5.5246890148009
1.9271999597549,-5.2575493129176
1.9296000003815,-5.0155380963441
1.9320000410080,-4.7972948065115
1.9343999624252,-4.6015637489850
1.9368000030518,-4.4271752067313
1.9392000436783,-4.2730346695446
1.9415999650955,-4.1381089099449
1.9440000057220,-4.0214192318119
1.9464000463486,-3.9220300366086
1.9487999677658,-3.8390464846778
1.9512000083923,-3.7716006952682
1.9536000490189,-3.7188549441327
1.9559999704361,-3.6799894443911
1.9584000110626,-3.6542070482916
1.9608000516891,-3.6407250652383
1.9631999731064,-3.6387798272019
1.9656000137329,-3.6476193665527
1.9680000543594,-3.6665125479120
1.9703999757767,-3.6947456170541
1.9728000164032,-3.7316259177943
1.9752000570297,-3.7764856176549
1.9775999784470,-3.8286836898249
1.9800000190735,-3.8876146084083
1.9823999404907,-3.9527138254338
1.9847999811172,-4.0234540163863
1.9872000217438,-4.0993611483149
1.9895999431610,-4.1800119975576
1.9919999837875,-4.2650433368639
1.9944000244141,-4.3541518708606
1.9967999458313,-4.4470965688099
1.9991999864578,-4.5437050811236
2.0016000270844,-4.6438682623646
2.0039999485016,-4.7475429452926
2.0064001083374,-4.8547489009459
2.0088000297546,-4.9655632142387
2.0111999511719,-5.0801187886265
2.0136001110077,-5.1985981412258
2.0160000324249,-5.3212257365382
2.0183999538422,-5.4482633772848
2.0208001136780,-5.5799981006407
2.0232000350952,-5.7167453314509
2.0255999565125,-5.8588288610493
2.0280001163483,-6.0065840655321
2.0304000377655,-6.1603476639787
