frequency,refcoef
0.60000002384186,-0.040715000064621
0.60240000486374,-0.043965462945403
0.60479998588562,-0.047148249528580
0.60720002651215,-0.050221878730313
0.60960000753403,-0.053153366792799
0.61199998855591,-0.055922346995485
0.61440002918243,-0.058520226354102
0.61680001020432,-0.060951156931994
0.61919999122620,-0.063232099357167
0.62159997224808,-0.065394047197836
0.62400001287460,-0.067478532303660
0.62639999389648,-0.069537269611606
0.62879997491837,-0.071632742383770
0.63120001554489,-0.073833405820716
0.63359999656677,-0.076210933418043
0.63599997758865,-0.078840981404624
0.63840001821518,-0.081800558927167
0.64079999923706,-0.085162424331642
0.64319998025894,-0.088997696002804
0.64560002088547,-0.093370047945900
0.64800000190735,-0.098335545536512
0.65039998292923,-0.10394191172213
0.65280002355576,-0.11022725901561
0.65520000457764,-0.11721813025246
0.65759998559952,-0.12493279709428
0.66000002622604,-0.13337569036433
0.66240000724792,-0.14254529833733
0.66479998826981,-0.15242929638810
0.66720002889633,-0.16300701138274
0.66960000991821,-0.17425227607091
0.67199999094009,-0.18613372025144
0.67439997196198,-0.19861882111297
0.67680001258850,-0.21167177032318
0.67919999361038,-0.22525878792450
0.68159997463226,-0.23934861107439
0.68400001525879,-0.25391276153669
0.68639999628067,-0.26892961488518
0.68879997730255,-0.28438293802725
0.69120001792908,-0.30026538079304
0.69359999895096,-0.31657619332937
0.69599997997284,-0.33332404503074
0.69840002059937,-0.35052329492582
0.70080000162125,-0.36819835744770
0.70319998264313,-0.38638015508193
0.70560002326965,-0.40510271344274
0.70800000429153,-0.42440753371064
0.71039998531342,-0.44433707134338
0.71280002593994,-0.46493613964203
0.71520000696182,-0.48624919070480
0.71759998798370,-0.50831787350485
0.72000002861023,-0.53118052019078
0.72240000963211,-0.55487282928715
0.72479999065399,-0.57942044426028
0.72719997167587,-0.60484545331031
0.72960001230240,-0.63115790466902
0.73199999332428,-0.65836441400441
0.73439997434616,-0.68645717230383
0.73680001497269,-0.71542489970946
0.73919999599457,-0.74524314795441
0.74159997701645,-0.77588424723027
0.74400001764297,-0.80731200560535
0.74639999866486,-0.83948565648500
0.74879997968674,-0.87235991358761
0.75120002031326,-0.90588938472892
0.75360000133514,-0.94002730884816
0.75599998235703,-0.97472826979226
0.75840002298355,-1.0099528737712
0.76080000400543,-1.0456650279701
0.76319998502731,-1.0818380047505
0.76560002565384,-1.1184553958643
0.76800000667572,-1.1555088281805
0.77039998769760,-1.1930033831019
0.77280002832413,-1.2309587387263
0.77520000934601,-1.2694056560475
0.77759999036789,-1.3083913360684
0.77999997138977,-1.3479749407106
0.78240001201630,-1.3882320624817
0.78479999303818,-1.4292497002386
0.78719997406006,-1.4711278393258
0.78960001468658,-1.5139767635445
0.79199999570847,-1.5579195150895
0.79439997673035,-1.6030836859492
0.79680001735687,-1.6496064345890
0.79919999837875,-1.6976294390041
0.80159997940063,-1.7472969604153
0.80400002002716,-1.7987562441879
0.80640000104904,-1.8521528428334
0.80879998207092,-1.9076338348325
0.81120002269745,-1.9653390893909
0.81360000371933,-2.0254081887549
0.81599998474121,-2.0879731617137
0.81840002536774,-2.1531591395417
0.82080000638962,-2.2210842163435
0.82319998741150,-2.2918593362153
0.82560002803802,-2.3655855141525
0.82800000905991,-2.4423551335034
0.83039999008179,-2.5222505998206
0.83279997110367,-2.6053453042735
0.83520001173019,-2.6917005700179
0.83759999275208,-2.7813696661547
0.83999997377396,-2.8743956742852
0.84240001440048,-2.9708110484734
0.84479999542236,-3.0706389738183
0.84719997644424,-3.1738903485877
0.84960001707077,-3.2805678802774
0.85199999809265,-3.3906650457316
0.85439997911453,-3.5041627355980
0.85680001974106,-3.6210329069259
0.85920000076294,-3.7412385198969
0.86159998178482,-3.8647291755060
0.86400002241135,-3.9914447789095
0.86640000343323,-4.1213149918300
0.86879998445511,-4.2542569210469
0.87120002508163,-4.3901743317029
0.87360000610352,-4.5289602624883
0.87599998712540,-4.6704941931918
0.87840002775192,-4.8146404819159
0.88080000877380,-4.9612520646452
0.88319998979568,-5.1101619957383
0.88559997081757,-5.2611951845987
0.88800001144409,-5.4141539095276
0.89039999246597,-5.5688269203541
0.89279997348785,-5.7249873196261
0.89520001411438,-5.8823911282605
0.89759999513626,-6.0407776146704
0.89999997615814,-6.1998694694405
0.90240001678467,-6.3593738444590
0.90479999780655,-6.5189843357006
0.90719997882843,-6.6783773248303
0.90960001945496,-6.8372188823094
0.91200000047684,-6.9951648887612
0.91439998149872,-7.1518597133051
0.91680002212524,-7.3069428182874
0.91920000314713,-7.4600488047248
0.92159998416901,-7.6108114122321
0.92400002479553,-7.7588665267091
0.92640000581741,-7.9038531613259
0.92879998683929,-8.0454233629374
0.93120002746582,-8.1832355127736
0.93360000848770,-8.3169686315869
0.93599998950958,-8.4463176518532
0.93839997053146,-8.5710016108883
0.94080001115799,-8.6907615989648
0.94319999217987,-8.8053688918819
0.94559997320175,-8.9146194548681
0.94800001382828,-9.0183437648667
0.95039999485016,-9.1163997134694
0.95279997587204,-9.2086777650323
0.95520001649857,-9.2950976751329
0.95759999752045,-9.3756098167917
0.95999997854233,-9.4501894092537
0.96240001916885,-9.5188404806898
0.96480000019073,-9.5815890824990
0.96719998121262,-9.6384815059923
0.96960002183914,-9.6895844585210
0.97200000286102,-9.7349780965116
0.97439998388290,-9.7747575250492
0.97680002450943,-9.8090300708997
0.97920000553131,-9.8379096531880
0.98159998655319,-9.8615211266493
0.98400002717972,-9.8799965591290
0.98640000820160,-9.8934739558329
0.98879998922348,-9.9020966824866
0.99119997024536,-9.9060170764063
0.99360001087189,-9.9053916873314
0.99599999189377,-9.9003871462293
0.99839997291565,-9.8911783526308
1.0008000135422,-9.8779481613560
1.0032000541687,-9.8608885022314
1.0055999755859,-9.8402050980730
1.0080000162125,-9.8161129724578
1.0104000568390,-9.7888368104942
1.0127999782562,-9.7586138250288
1.0152000188828,-9.7256907002157
1.0176000595093,-9.6903211876507
1.0199999809265,-9.6527657809838
1.0224000215530,-9.6132917934012
1.0247999429703,-9.5721693826707
1.0271999835968,-9.5296669476597
1.0296000242233,-9.4860505448044
1.0319999456406,-9.4415809015763
1.0343999862671,-9.3965113462603
1.0368000268936,-9.3510806499859
1.0391999483109,-9.3055168577724
1.0415999889374,-9.2600283375571
1.0440000295639,-9.2148068884474
1.0463999509811,-9.1700232725191
1.0487999916077,-9.1258253101364
1.0512000322342,-9.0823381101677
1.0535999536514,-9.0396638122114
1.0559999942780,-8.9978822447500
1.0584000349045,-8.9570465114677
1.0607999563217,-8.9171921568149
1.0631999969482,-8.8783319805512
1.0656000375748,-8.8404627720888
1.0679999589920,-8.8035626532660
1.0703999996185,-8.7675988760931
1.0728000402451,-8.7325283614229
1.0751999616623,-8.6983015117276
1.0776000022888,-8.6648660271790
1.0800000429153,-8.6321676164774
1.0823999643326,-8.6001596649186
1.0848000049591,-8.5688003763456
1.0872000455856,-8.5380562182587
1.0895999670029,-8.5079087232403
1.0920000076294,-8.4783522989429
1.0944000482559,-8.4493970208503
1.0967999696732,-8.4210713722863
1.0992000102997,-8.3934203747441
1.1016000509262,-8.3665042350998
1.1039999723434,-8.3404014476272
1.1064000129700,-8.3152029431878
1.1088000535965,-8.2910134962275
1.1111999750137,-8.2679430637535
1.1136000156403,-8.2461151578666
1.1160000562668,-8.2256499697716
1.1183999776840,-8.2066721458451
1.1208000183105,-8.1892995557344
1.1232000589371,-8.1736450380591
1.1255999803543,-8.1598110812063
1.1280000209808,-8.1478864159869
1.1303999423981,-8.1379431695482
1.1327999830246,-8.1300337873269
1.1352000236511,-8.1241942199199
1.1375999450684,-8.1204351341288
1.1399999856949,-8.1187454840236
1.1424000263214,-8.1190928823846
1.1447999477386,-8.1214199254611
1.1471999883652,-8.1256498713061
1.1496000289917,-8.1316834733932
1.1519999504089,-8.1394042608584
1.1543999910355,-8.1486796971250
1.1568000316620,-8.1593642320008
1.1591999530792,-8.1713024924496
1.1615999937057,-8.1843332799667
1.1640000343323,-8.1982901705405
1.1663999557495,-8.2130110273511
1.1687999963760,-8.2283354138822
1.1712000370026,-8.2441108388553
1.1735999584198,-8.2601975467571
1.1759999990463,-8.2764658764248
1.1784000396729,-8.2928052511871
1.1807999610901,-8.3091177200328
1.1832000017166,-8.3253241501701
1.1856000423431,-8.3413629626334
1.1879999637604,-8.3571886277516
1.1904000043869,-8.3727695405487
1.1928000450134,-8.3880866443149
1.1951999664307,-8.4031307725476
1.1976000070572,-8.4179006904602
1.2000000476837,-8.4323973831657
1.2023999691010,-8.4466206863442
1.2048000097275,-8.4605676697039
1.2072000503540,-8.4742286841046
1.2095999717712,-8.4875827058266
1.2120000123978,-8.5005956962082
1.2144000530243,-8.5132179540084
1.2167999744415,-8.5253843112321
1.2192000150681,-8.5370119838099
1.2216000556946,-8.5479994925600
1.2239999771118,-8.5582301766302
1.2264000177383,-8.5675741241900
1.2288000583649,-8.5758869483458
1.2311999797821,-8.5830136790546
1.2336000204086,-8.5887973896599
1.2359999418259,-8.5930766506438
1.2383999824524,-8.5956922418145
1.2408000230789,-8.5964929032629
1.2431999444962,-8.5953388302038
1.2455999851227,-8.5921037390278
1.2480000257492,-8.5866778888372
1.2503999471664,-8.5789744016531
1.2527999877930,-8.5689274894627
1.2552000284195,-8.5564948744390
1.2575999498367,-8.5416570128322
1.2599999904633,-8.5244159754084
1.2624000310898,-8.5047950296488
1.2647999525070,-8.4828325840940
1.2671999931335,-8.4585839936946
1.2696000337601,-8.4321123945268
1.2719999551773,-8.4034854103897
1.2743999958038,-8.3727738928704
1.2768000364304,-8.3400455617479
1.2791999578476,-8.3053606827790
1.2815999984741,-8.2687678440838
1.2840000391006,-8.2303054693203
1.2863999605179,-8.1899916634535
1.2888000011444,-8.1478327098086
1.2912000417709,-8.1038151513270
1.2935999631882,-8.0579111158370
1.2960000038147,-8.0100766108931
1.2984000444412,-7.9602533792097
1.3007999658585,-7.9083781985920
1.3032000064850,-7.8543799219265
1.3056000471115,-7.7981836872760
1.3079999685287,-7.7397215607329
1.3104000091553,-7.6789289664104
1.3128000497818,-7.6157561684290
1.3151999711990,-7.5501659128433
1.3176000118256,-7.4821423719795
1.3200000524521,-7.4116893153037
1.3223999738693,-7.3388375325499
1.3248000144958,-7.2636398123575
1.3272000551224,-7.1861747765608
1.3295999765396,-7.1065490142293
1.3320000171661,-7.0248874352290
1.3344000577927,-6.9413405440913
1.3367999792099,-6.8560747864926
1.3392000198364,-6.7692728946679
1.3415999412537,-6.6811266472357
1.3439999818802,-6.5918397181910
1.3464000225067,-6.5016146480924
1.3487999439240,-6.4106583471525
1.3511999845505,-6.3191709078197
1.3536000251770,-6.2273483225728
1.3559999465942,-6.1353763385745
1.3583999872208,-6.0434300360488
1.3608000278473,-5.9516729833895
1.3631999492645,-5.8602520653865
1.3655999898911,-5.7693020209973
1.3680000305176,-5.6789434515475
1.3703999519348,-5.5892828824989
1.3727999925613,-5.5004126623623
1.3752000331879,-5.4124145223498
1.3775999546051,-5.3253602780269
1.3799999952316,-5.2393119039203
1.3824000358582,-5.1543240503162
1.3847999572754,-5.0704444090054
1.3871999979019,-4.9877198192687
1.3896000385284,-4.9061903904847
1.3919999599457,-4.8258974206195
1.3944000005722,-4.7468808272579
1.3968000411987,-4.6691808947912
1.3991999626160,-4.5928360258369
1.4016000032425,-4.5178900761853
1.4040000438690,-4.4443845159122
1.4063999652863,-4.3723634601730
1.4088000059128,-4.3018697332040
1.4112000465393,-4.2329441220641
1.4135999679565,-4.1656295634773
1.4160000085831,-4.0999643288423
1.4184000492096,-4.0359820830868
1.4207999706268,-3.9737142859601
1.4232000112534,-3.9131853555266
1.4256000518799,-3.8544136298916
1.4279999732971,-3.7974110845583
1.4304000139236,-3.7421787940524
1.4328000545502,-3.6887142441698
1.4351999759674,-3.6370031382467
1.4376000165939,-3.5870222648966
1.4400000572205,-3.5387418164095
1.4423999786377,-3.4921235788205
1.4448000192642,-3.4471222416435
1.4471999406815,-3.4036852757396
1.4495999813080,-3.3617562814166
1.4520000219345,-3.3212731638198
1.4543999433517,-3.2821724627286
1.4567999839783,-3.2443891319315
1.4592000246048,-3.2078556283641
1.4615999460220,-3.1725100363364
1.4639999866486,-3.1382884037344
1.4664000272751,-3.1051327867773
1.4687999486923,-3.0729903547170
1.4711999893188,-3.0418115009421
1.4736000299454,-3.0115557167850
1.4759999513626,-2.9821852807350
1.4783999919891,-2.9536702686650
1.4808000326157,-2.9259887429067
1.4831999540329,-2.8991222176928
1.4855999946594,-2.8730577099276
1.4880000352859,-2.8477877136896
1.4903999567032,-2.8233065377654
1.4927999973297,-2.7996124931406
1.4952000379562,-2.7767040401064
1.4975999593735,-2.7545800839620
1.5000000000000,-2.7332383707571
1.5024000406265,-2.7126734418531
1.5047999620438,-2.6928770195829
1.5072000026703,-2.6738398467984
1.5096000432968,-2.6555436098522
1.5119999647141,-2.6379689502216
1.5144000053406,-2.6210893862596
1.5168000459671,-2.6048752501288
1.5191999673843,-2.5892922016209
1.5216000080109,-2.5743009398266
1.5240000486374,-2.5598622057200
1.5263999700546,-2.5459327045749
1.5288000106812,-2.5324699953883
1.5312000513077,-2.5194298407132
1.5335999727249,-2.5067754996143
1.5360000133514,-2.4944679856895
1.5384000539780,-2.4824777087851
1.5407999753952,-2.4707767880532
1.5432000160217,-2.4593473795405
1.5456000566483,-2.4481776211794
1.5479999780655,-2.4372645730945
1.5504000186920,-2.4266126247040
1.5528000593185,-2.4162349116628
1.5551999807358,-2.4061540175924
1.5576000213623,-2.3963963011988
1.5599999427795,-2.3869974866368
1.5623999834061,-2.3779950159173
1.5648000240326,-2.3694330586943
1.5671999454498,-2.3613544096639
1.5695999860764,-2.3538057966858
1.5720000267029,-2.3468292851491
1.5743999481201,-2.3404638467769
1.5767999887466,-2.3347456306393
1.5792000293732,-2.3297029278023
1.5815999507904,-2.3253563744060
1.5839999914169,-2.3217198315325
1.5864000320435,-2.3187937999564
1.5887999534607,-2.3165725578319
1.5911999940872,-2.3150394848279
1.5936000347137,-2.3141693401874
1.5959999561310,-2.3139249445053
1.5983999967575,-2.3142635588266
1.6008000373840,-2.3151350092407
1.6031999588013,-2.3164839526993
1.6055999994278,-2.3182508365673
1.6080000400543,-2.3203740670888
1.6103999614716,-2.3227939484297
1.6128000020981,-2.3254518050507
1.6152000427246,-2.3282940735194
1.6175999641418,-2.3312720384291
1.6200000047684,-2.3343443636248
1.6224000453949,-2.3374807484459
1.6247999668121,-2.3406609137409
1.6272000074387,-2.3438729032132
1.6296000480652,-2.3471181216289
1.6319999694824,-2.3504086462352
1.6344000101089,-2.3537654646788
1.6368000507355,-2.3572232357062
1.6391999721527,-2.3608202384092
1.6416000127792,-2.3646056487002
1.6440000534058,-2.3686304943180
1.6463999748230,-2.3729510217097
1.6488000154495,-2.3776247103594
1.6512000560760,-2.3827067450491
1.6535999774933,-2.3882529437841
1.6560000181198,-2.3943076833676
1.6584000587463,-2.4009159786717
1.6607999801636,-2.4081107935976
1.6632000207901,-2.4159165647030
1.6655999422073,-2.4243504454285
1.6679999828339,-2.4334174817173
1.6704000234604,-2.4431142776433
1.6727999448776,-2.4534274484145
1.6751999855042,-2.4643355265299
1.6776000261307,-2.4758109743693
1.6799999475479,-2.4878177072118
1.6823999881744,-2.5003197380821
1.6848000288010,-2.5132767575817
1.6871999502182,-2.5266496933264
1.6895999908447,-2.5404037446008
1.6920000314713,-2.5545059359639
1.6943999528885,-2.5689321596251
1.6967999935150,-2.5836648275585
1.6992000341415,-2.5986986244910
1.7015999555588,-2.6140367250717
1.7039999961853,-2.6296943099705
1.7064000368118,-2.6457003866374
1.7087999582291,-2.6620929074944
1.7111999988556,-2.6789212806451
1.7136000394821,-2.6962440190512
1.7159999608994,-2.7141287296055
1.7184000015259,-2.7326492133362
1.7208000421524,-2.7518809833540
1.7231999635696,-2.7719041343907
1.7256000041962,-2.7927961369932
1.7280000448227,-2.8146318973169
1.7303999662399,-2.8374824785860
1.7328000068665,-2.8614080830530
1.7352000474930,-2.8864633039299
1.7375999689102,-2.9126901132661
1.7400000095367,-2.9401196653942
1.7424000501633,-2.9687707603731
1.7447999715805,-2.9986503075700
1.7472000122070,-3.0297547479637
1.7496000528336,-3.0620689965527
1.7519999742508,-3.0955682343617
1.7544000148773,-3.1302219133816
1.7568000555038,-3.1659959521048
1.7591999769211,-3.2028545354585
1.7616000175476,-3.2407609825330
1.7640000581741,-3.2796861248345
1.7663999795914,-3.3196072725275
1.7688000202179,-3.3605149746917
1.7711999416351,-3.4024109212664
1.7735999822617,-3.4453137857103
1.7760000228882,-3.4892649970526
1.7783999443054,-3.5343207139993
1.7807999849319,-3.5805604529061
1.7832000255585,-3.6280889603889
1.7855999469757,-3.6770281860941
1.7879999876022,-3.7275213535206
1.7904000282288,-3.7797297727967
1.7927999496460,-3.8338340586158
1.7951999902725,-3.8900253019885
1.7976000308990,-3.9485053018470
1.7999999523163,-4.0094863903020
1.8023999929428,-4.0731793408692
1.8048000335693,-4.1397992616815
1.8071999549866,-4.2095537654254
1.8095999956131,-4.2826486941009
1.8120000362396,-4.3592767899060
1.8143999576569,-4.4396188693142
1.8167999982834,-4.5238444724666
1.8192000389099,-4.6121063257962
1.8215999603271,-4.7045454648204
1.8240000009537,-4.8012850734860
1.8264000415802,-4.9024382182538
1.8287999629974,-5.0081050714773
1.8312000036240,-5.1183825011477
1.8336000442505,-5.2333575653487
1.8359999656677,-5.3531236014295
1.8384000062943,-5.4777753135505
1.8408000469208,-5.6074207763220
1.8431999683380,-5.7421838371733
1.8456000089645,-5.8822130489711
1.8480000495911,-6.0276817112692
1.8503999710083,-6.1787972024890
1.8528000116348,-6.3358016958429
1.8552000522614,-6.4989767026556
1.8575999736786,-6.6686409931569
1.8600000143051,-6.8451492594748
1.8624000549316,-7.0288874826049
1.8647999763489,-7.2202621321270
1.8672000169754,-7.4196888342793
1.8696000576019,-7.6275704072785
1.8719999790192,-7.8442722539416
1.8744000196457,-8.0700855733227
1.8767999410629,-8.3051828476379
1.8791999816895,-8.5495610241823
1.8816000223160,-8.8029641046307
1.8839999437332,-9.0647924244910
1.8863999843597,-9.3339857272259
1.8888000249863,-9.6088913166630
1.8911999464035,-9.8871010046904
1.8935999870300,-10.165278730804
1.8960000276566,-10.438989717505
1.8983999490738,-10.702561523993
1.9007999897003,-10.949016145928
1.9032000303268,-11.170155192450
1.9055999517441,-11.356862232843
1.9079999923706,-11.499679359010
1.9104000329971,-11.589672691855
1.9127999544144,-11.619487645409
1.9151999950409,-11.584399349007
1.9176000356674,-11.483089805736
1.9199999570847,-11.317909657272
1.9223999977112,-11.094555809779
1.9248000383377,-10.821251094251
1.9271999597549,-10.507687876665
1.9296000003815,-10.163979960024
1.9320000410080,-9.7998236029736
1.9343999624252,-9.4239523201790
1.9368000030518,-9.0438586659196
1.9392000436783,-8.6657310969652
1.9415999650955,-8.2945186582103
1.9440000057220,-7.9340846375663
1.9464000463486,-7.5873653826655
1.9487999677658,-7.2565447921329
1.9512000083923,-6.9432051866178
1.9536000490189,-6.6484555003110
1.9559999704361,-6.3730400197265
1.9584000110626,-6.1174233396495
1.9608000516891,-5.8818568571329
1.9631999731064,-5.6664365304805
1.9656000137329,-5.4711375393016
1.9680000543594,-5.2958476548325
1.9703999757767,-5.1403928622766
1.9728000164032,-5.0045546038877
1.9752000570297,-4.8880767391843
1.9775999784470,-4.7906878583176
1.9800000190735,-4.7120964517706
1.9823999404907,-4.6520023619858
1.9847999811172,-4.6101013887591
1.9872000217438,-4.5860837890591
1.9895999431610,-4.5796404647428
1.9919999837875,-4.5904611084833
1.9944000244141,-4.6182364366859
1.9967999458313,-4.6626630690659
1.9991999864578,-4.7234353447359
2.0016000270844,-4.8002554165471
2.0039999485016,-4.8928301339719
2.0064001083374,-5.0008708064176
2.0088000297546,-5.1240990173931
2.0111999511719,-5.2622477920195
2.0136001110077,-5.4150640976291
2.0160000324249,-5.5823125876409
2.0183999538422,-5.7637801715097
2.0208001136780,-5.9592830994830
2.0232000350952,-6.1686730062085
2.0255999565125,-6.3918427492677
2.0280001163483,-6.6287401996326
2.0304000377655,-6.8793718791253
