frequency,refcoef
0.60000002384186,-69.815411962482
0.60240000486374,-69.287615615696
0.60479998588562,-68.788627028256
0.60720002651215,-68.312595722487
0.60960000753403,-67.853389138955
0.61199998855591,-67.404628593206
0.61440002918243,-66.959783989022
0.61680001020432,-66.512352473506
0.61919999122620,-66.056118437628
0.62159997224808,-65.585465005316
0.62400001287460,-65.095719228456
0.62639999389648,-64.583466771980
0.62879997491837,-64.046778528811
0.63120001554489,-63.485298841994
0.63359999656677,-62.900182809455
0.63599997758865,-62.293880277622
0.63840001821518,-61.669826120311
0.64079999923706,-61.032073603105
0.64319998025894,-60.384941742386
0.64560002088547,-59.732709899573
0.64800000190735,-59.079386104344
0.65039998292923,-58.428554715295
0.65280002355576,-57.783289734914
0.65520000457764,-57.146125333575
0.65759998559952,-56.519064130297
0.66000002622604,-55.903608895059
0.66240000724792,-55.300810070340
0.66479998826981,-54.711316636299
0.66720002889633,-54.135427175389
0.66960000991821,-53.573136769418
0.67199999094009,-53.024182789903
0.67439997196198,-52.488083798889
0.67680001258850,-51.964171289685
0.67919999361038,-51.451625677862
0.68159997463226,-50.949501647424
0.68400001525879,-50.456758085416
0.68639999628067,-49.972279833411
0.68879997730255,-49.494909483447
0.69120001792908,-49.023467101048
0.69359999895096,-48.556780866294
0.69599997997284,-48.093712801441
0.69840002059937,-47.633182861456
0.70080000162125,-47.174192762337
0.70319998264313,-46.715855277790
0.70560002326965,-46.257405887884
0.70800000429153,-45.798221829981
0.71039998531342,-45.337838802206
0.71280002593994,-44.875944673596
0.71520000696182,-44.412391610610
0.71759998798370,-43.947182937575
0.72000002861023,-43.480464989937
0.72240000963211,-43.012509619344
0.72479999065399,-42.543700505106
0.72719997167587,-42.074508161172
0.72960001230240,-41.605467184132
0.73199999332428,-41.137159979049
0.73439997434616,-40.670190378380
0.73680001497269,-40.205168369428
0.73919999599457,-39.742692191466
0.74159997701645,-39.283334953397
0.74400001764297,-38.827632525388
0.74639999866486,-38.376074281739
0.74879997968674,-37.929100400164
0.75120002031326,-37.487094567978
0.75360000133514,-37.050381345453
0.75599998235703,-36.619229358413
0.75840002298355,-36.193849383353
0.76080000400543,-35.774397669826
0.76319998502731,-35.360977699926
0.76560002565384,-34.953646725268
0.76800000667572,-34.552415061943
0.77039998769760,-34.157254806476
0.77280002832413,-33.768101498193
0.77520000934601,-33.384860020740
0.77759999036789,-33.007412124473
0.77999997138977,-32.635616134881
0.78240001201630,-32.269314075059
0.78479999303818,-31.908337790912
0.78719997406006,-31.552512561583
0.78960001468658,-31.201658845329
0.79199999570847,-30.855601149721
0.79439997673035,-30.514168075492
0.79680001735687,-30.177199845310
0.79919999837875,-29.844546572770
0.80159997940063,-29.516074833334
0.80400002002716,-29.191669341993
0.80640000104904,-28.871235244915
0.80879998207092,-28.554700046197
0.81120002269745,-28.242011815095
0.81360000371933,-27.933143763777
0.81599998474121,-27.628094458754
0.81840002536774,-27.326883593313
0.82080000638962,-27.029554453519
0.82319998741150,-26.736173153804
0.82560002803802,-26.446825933027
0.82800000905991,-26.161618052194
0.83039999008179,-25.880672751274
0.83279997110367,-25.604127543777
0.83520001173019,-25.332132245208
0.83759999275208,-25.064847908411
0.83999997377396,-24.802445736246
0.84240001440048,-24.545102741286
0.84479999542236,-24.292997030303
0.84719997644424,-24.046313057024
0.84960001707077,-23.805233255869
0.85199999809265,-23.569938688833
0.85439997911453,-23.340609031952
0.85680001974106,-23.117416295695
0.85920000076294,-22.900529548845
0.86159998178482,-22.690110040912
0.86400002241135,-22.486310593729
0.86640000343323,-22.289274457328
0.86879998445511,-22.099137195045
0.87120002508163,-21.916025032437
0.87360000610352,-21.740049959448
0.87599998712540,-21.571316524488
0.87840002775192,-21.409917642418
0.88080000877380,-21.255932656818
0.88319998979568,-21.109434342770
0.88559997081757,-20.970476761728
0.88800001144409,-20.839109560032
0.89039999246597,-20.715365520286
0.89279997348785,-20.599267186470
0.89520001411438,-20.490827073405
0.89759999513626,-20.390042905244
0.89999997615814,-20.296902751741
0.90240001678467,-20.211382609907
0.90479999780655,-20.133444373170
0.90719997882843,-20.063041632665
0.90960001945496,-20.000113230890
0.91200000047684,-19.944586924628
0.91439998149872,-19.896378958677
0.91680002212524,-19.855394018902
0.91920000314713,-19.821523477878
0.92159998416901,-19.794647719594
0.92400002479553,-19.774635634367
0.92640000581741,-19.761343322288
0.92879998683929,-19.754618509409
0.93120002746582,-19.754292482378
0.93360000848770,-19.760191035366
0.93599998950958,-19.772126846288
0.93839997053146,-19.789903130198
0.94080001115799,-19.813312788287
0.94319999217987,-19.842144525235
0.94559997320175,-19.876173457742
0.94800001382828,-19.915173765528
0.95039999485016,-19.958910659702
0.95279997587204,-20.007146707378
0.95520001649857,-20.059641611500
0.95759999752045,-20.116154104345
0.95999997854233,-20.176444597797
0.96240001916885,-20.240273508421
0.96480000019073,-20.307407770606
0.96719998121262,-20.377618422437
0.96960002183914,-20.450685200514
0.97200000286102,-20.526397218010
0.97439998388290,-20.604553389833
0.97680002450943,-20.684967574491
0.97920000553131,-20.767463818126
0.98159998655319,-20.851882158907
0.98400002717972,-20.938079933116
0.98640000820160,-21.025927347761
0.98879998922348,-21.115310771480
0.99119997024536,-21.206134598208
0.99360001087189,-21.298314501802
0.99599999189377,-21.391781152588
0.99839997291565,-21.486477228742
1.0008000135422,-21.582355695744
1.0032000541687,-21.679378036939
1.0055999755859,-21.777512194513
1.0080000162125,-21.876727579945
1.0104000568390,-21.976998834471
1.0127999782562,-22.078291928657
1.0152000188828,-22.180573870040
1.0176000595093,-22.283800770943
1.0199999809265,-22.387921400029
1.0224000215530,-22.492869707430
1.0247999429703,-22.598566681770
1.0271999835968,-22.704914702841
1.0296000242233,-22.811798170315
1.0319999456406,-22.919087332341
1.0343999862671,-23.026624423164
1.0368000268936,-23.134240376831
1.0391999483109,-23.241738604057
1.0415999889374,-23.348909840369
1.0440000295639,-23.455523329983
1.0463999509811,-23.561338284547
1.0487999916077,-23.666097943210
1.0512000322342,-23.769536692637
1.0535999536514,-23.871381103846
1.0559999942780,-23.971359316564
1.0584000349045,-24.069198475273
1.0607999563217,-24.164632056234
1.0631999969482,-24.257401390167
1.0656000375748,-24.347264275619
1.0679999589920,-24.433992806316
1.0703999996185,-24.517381637927
1.0728000402451,-24.597247532737
1.0751999616623,-24.673432260511
1.0776000022888,-24.745803492746
1.0800000429153,-24.814256291898
1.0823999643326,-24.878714129546
1.0848000049591,-24.939126970771
1.0872000455856,-24.995468411348
1.0895999670029,-25.047738682621
1.0920000076294,-25.095956561055
1.0944000482559,-25.140163687979
1.0967999696732,-25.180416694387
1.0992000102997,-25.216788683779
1.1016000509262,-25.249364898761
1.1039999723434,-25.278241038543
1.1064000129700,-25.303524625263
1.1088000535965,-25.325330952454
1.1111999750137,-25.343782686750
1.1136000156403,-25.359011589487
1.1160000562668,-25.371156980181
1.1183999776840,-25.380368576960
1.1208000183105,-25.386806481966
1.1232000589371,-25.390638232490
1.1255999803543,-25.392048851011
1.1280000209808,-25.391233516790
1.1303999423981,-25.388404357154
1.1327999830246,-25.383784408232
1.1352000236511,-25.377618843571
1.1375999450684,-25.370162999014
1.1399999856949,-25.361691003731
1.1424000263214,-25.352490489168
1.1447999477386,-25.342861874012
1.1471999883652,-25.333119116206
1.1496000289917,-25.323583133379
1.1519999504089,-25.314584038467
1.1543999910355,-25.306455084594
1.1568000316620,-25.299532187078
1.1591999530792,-25.294148463039
1.1615999937057,-25.290633293782
1.1640000343323,-25.289308798462
1.1663999557495,-25.290485505170
1.1687999963760,-25.294461684410
1.1712000370026,-25.301517992494
1.1735999584198,-25.311917888231
1.1759999990463,-25.325903366378
1.1784000396729,-25.343693555014
1.1807999610901,-25.365485557854
1.1832000017166,-25.391448102009
1.1856000423431,-25.421724420147
1.1879999637604,-25.456430446717
1.1904000043869,-25.495655246470
1.1928000450134,-25.539458339904
1.1951999664307,-25.587871500411
1.1976000070572,-25.640899639510
1.2000000476837,-25.698522344302
1.2023999691010,-25.760691127909
1.2048000097275,-25.827334495348
1.2072000503540,-25.898360082402
1.2095999717712,-25.973652585709
1.2120000123978,-26.053080771094
1.2144000530243,-26.136495453151
1.2167999744415,-26.223737848630
1.2192000150681,-26.314639540591
1.2216000556946,-26.409024204721
1.2239999771118,-26.506715801502
1.2264000177383,-26.607539298165
1.2288000583649,-26.711324789985
1.2311999797821,-26.817911015356
1.2336000204086,-26.927153577698
1.2359999418259,-27.038919633376
1.2383999824524,-27.153100674284
1.2408000230789,-27.269608043907
1.2431999444962,-27.388379491933
1.2455999851227,-27.509378080501
1.2480000257492,-27.632596928116
1.2503999471664,-27.758055393780
1.2527999877930,-27.885801887137
1.2552000284195,-28.015909603526
1.2575999498367,-28.148477584193
1.2599999904633,-28.283628728273
1.2624000310898,-28.421500785442
1.2647999525070,-28.562250118074
1.2671999931335,-28.706038847946
1.2696000337601,-28.853040523317
1.2719999551773,-29.003423558629
1.2743999958038,-29.157355479642
1.2768000364304,-29.314989367608
1.2791999578476,-29.476463817422
1.2815999984741,-29.641894393452
1.2840000391006,-29.811366730946
1.2863999605179,-29.984936164999
1.2888000011444,-30.162614531316
1.2912000417709,-30.344373961127
1.2935999631882,-30.530130758435
1.2960000038147,-30.719755126629
1.2984000444412,-30.913054135455
1.3007999658585,-31.109775907385
1.3032000064850,-31.309606200960
1.3056000471115,-31.512165347139
1.3079999685287,-31.717009791339
1.3104000091553,-31.923631757143
1.3128000497818,-32.131462907477
1.3151999711990,-32.339879337726
1.3176000118256,-32.548207423195
1.3200000524521,-32.755733030560
1.3223999738693,-32.961710025734
1.3248000144958,-33.165375868256
1.3272000551224,-33.365963884123
1.3295999765396,-33.562722841364
1.3320000171661,-33.754927780750
1.3344000577927,-33.941902177750
1.3367999792099,-34.123034083508
1.3392000198364,-34.297789514768
1.3415999412537,-34.465726282765
1.3439999818802,-34.626503167781
1.3464000225067,-34.779890575577
1.3487999439240,-34.925766836589
1.3511999845505,-35.064122824295
1.3536000251770,-35.195051663535
1.3559999465942,-35.318744746406
1.3583999872208,-35.435474788720
1.3608000278473,-35.545587312977
1.3631999492645,-35.649482543648
1.3655999898911,-35.747600965463
1.3680000305176,-35.840411434606
1.3703999519348,-35.928393705316
1.3727999925613,-36.012032028216
1.3752000331879,-36.091801674302
1.3775999546051,-36.168164704720
1.3799999952316,-36.241564561186
1.3824000358582,-36.312421819936
1.3847999572754,-36.381136481082
1.3871999979019,-36.448086454447
1.3896000385284,-36.513630928537
1.3919999599457,-36.578109550973
1.3944000005722,-36.641853779560
1.3968000411987,-36.705178623731
1.3991999626160,-36.768395095589
1.4016000032425,-36.831808053448
1.4040000438690,-36.895719736646
1.4063999652863,-36.960426137472
1.4088000059128,-37.026224195917
1.4112000465393,-37.093400982517
1.4135999679565,-37.162240859107
1.4160000085831,-37.233014920670
1.4184000492096,-37.305979600244
1.4207999706268,-37.381372764662
1.4232000112534,-37.459408170340
1.4256000518799,-37.540267613770
1.4279999732971,-37.624098946727
1.4304000139236,-37.711005511796
1.4328000545502,-37.801049873626
1.4351999759674,-37.894237213502
1.4376000165939,-37.990524130617
1.4400000572205,-38.089804543239
1.4423999786377,-38.191914970973
1.4448000192642,-38.296634387032
1.4471999406815,-38.403680500718
1.4495999813080,-38.512717618124
1.4520000219345,-38.623360477391
1.4543999433517,-38.735180400600
1.4567999839783,-38.847717074933
1.4592000246048,-38.960486293739
1.4615999460220,-39.072995914612
1.4639999866486,-39.184762734492
1.4664000272751,-39.295319890123
1.4687999486923,-39.404244560188
1.4711999893188,-39.511164462534
1.4736000299454,-39.615777670582
1.4759999513626,-39.717865069733
1.4783999919891,-39.817299621247
1.4808000326157,-39.914051217144
1.4831999540329,-40.008193920073
1.4855999946594,-40.099903693467
1.4880000352859,-40.189449436966
1.4903999567032,-40.277188936082
1.4927999973297,-40.363549360769
1.4952000379562,-40.449019470594
1.4975999593735,-40.534122626518
1.5000000000000,-40.619406793530
1.5024000406265,-40.705418588480
1.5047999620438,-40.792687265290
1.5072000026703,-40.881699525571
1.5096000432968,-40.972891601378
1.5119999647141,-41.066629903641
1.5144000053406,-41.163190798896
1.5168000459671,-41.262760401721
1.5191999673843,-41.365416547359
1.5216000080109,-41.471125454826
1.5240000486374,-41.579737652294
1.5263999700546,-41.690985442141
1.5288000106812,-41.804485947367
1.5312000513077,-41.919742231904
1.5335999727249,-42.036156087385
1.5360000133514,-42.153032402143
1.5384000539780,-42.269596443001
1.5407999753952,-42.385014284388
1.5432000160217,-42.498405896734
1.5456000566483,-42.608871018263
1.5479999780655,-42.715510007639
1.5504000186920,-42.817448544566
1.5528000593185,-42.913859699230
1.5551999807358,-43.003978697576
1.5576000213623,-43.087123016703
1.5599999427795,-43.162700026622
1.5623999834061,-43.230209333564
1.5648000240326,-43.289243148550
1.5671999454498,-43.339475617102
1.5695999860764,-43.380649083544
1.5720000267029,-43.412561231237
1.5743999481201,-43.435039958767
1.5767999887466,-43.447927477322
1.5792000293732,-43.451062953337
1.5815999507904,-43.444271420790
1.5839999914169,-43.427355002986
1.5864000320435,-43.400091343480
1.5887999534607,-43.362245815991
1.5911999940872,-43.313582035122
1.5936000347137,-43.253883057577
1.5959999561310,-43.182981292923
1.5983999967575,-43.100782233007
1.6008000373840,-43.007296505673
1.6031999588013,-42.902662130527
1.6055999994278,-42.787172354651
1.6080000400543,-42.661281517120
1.6103999614716,-42.525614285914
1.6128000020981,-42.380960798130
1.6152000427246,-42.228260094566
1.6175999641418,-42.068586207546
1.6200000047684,-41.903110095767
1.6224000453949,-41.733079278320
1.6247999668121,-41.559777539503
1.6272000074387,-41.384494435827
1.6296000480652,-41.208499319684
1.6319999694824,-41.033007427248
1.6344000101089,-40.859163749716
1.6368000507355,-40.688020572320
1.6391999721527,-40.520526134489
1.6416000127792,-40.357516080893
1.6440000534058,-40.199705253788
1.6463999748230,-40.047685626630
1.6488000154495,-39.901933225534
1.6512000560760,-39.762797910355
1.6535999774933,-39.630521653932
1.6560000181198,-39.505235173758
1.6584000587463,-39.386969791452
1.6607999801636,-39.275660454179
1.6632000207901,-39.171161188915
1.6655999422073,-39.073248664035
1.6679999828339,-38.981635699638
1.6704000234604,-38.895984047559
1.6727999448776,-38.815910511566
1.6751999855042,-38.741006959294
1.6776000261307,-38.670846960259
1.6799999475479,-38.605000299347
1.6823999881744,-38.543050867050
1.6848000288010,-38.484602423193
1.6871999502182,-38.429296783557
1.6895999908447,-38.376821348707
1.6920000314713,-38.326922545476
1.6943999528885,-38.279410683575
1.6967999935150,-38.234163980813
1.6992000341415,-38.191140700977
1.7015999555588,-38.150368582356
1.7039999961853,-38.111950587677
1.7064000368118,-38.076054860948
1.7087999582291,-38.042912406509
1.7111999988556,-38.012802951923
1.7136000394821,-37.986047739948
1.7159999608994,-37.962993480748
1.7184000015259,-37.943999281500
1.7208000421524,-37.929423159693
1.7231999635696,-37.919606335378
1.7256000041962,-37.914858459177
1.7280000448227,-37.915442623282
1.7303999662399,-37.921560245783
1.7328000068665,-37.933340121903
1.7352000474930,-37.950823086575
1.7375999689102,-37.973947581438
1.7400000095367,-38.002545476064
1.7424000501633,-38.036327824096
1.7447999715805,-38.074873553681
1.7472000122070,-38.117631535453
1.7496000528336,-38.163911678658
1.7519999742508,-38.212886868229
1.7544000148773,-38.263596775611
1.7568000555038,-38.314959234227
1.7591999769211,-38.365784684943
1.7616000175476,-38.414796357260
1.7640000581741,-38.460662132906
1.7663999795914,-38.502028258563
1.7688000202179,-38.537559370260
1.7711999416351,-38.565983957422
1.7735999822617,-38.586143583046
1.7760000228882,-38.597036442043
1.7783999443054,-38.597855645323
1.7807999849319,-38.588025796804
1.7832000255585,-38.567219121792
1.7855999469757,-38.535369144781
1.7879999876022,-38.492658292607
1.7904000282288,-38.439498789438
1.7927999496460,-38.376500840300
1.7951999902725,-38.304431763087
1.7976000308990,-38.224163360210
1.7999999523163,-38.136630228721
1.8023999929428,-38.042776658205
1.8048000335693,-37.943513368909
1.8071999549866,-37.839679827109
1.8095999956131,-37.732018121889
1.8120000362396,-37.621146932926
1.8143999576569,-37.507551729056
1.8167999982834,-37.391578221561
1.8192000389099,-37.273435704185
1.8215999603271,-37.153208618821
1.8240000009537,-37.030869446414
1.8264000415802,-36.906301672089
1.8287999629974,-36.779324094488
1.8312000036240,-36.649717463410
1.8336000442505,-36.517257437997
1.8359999656677,-36.381739332617
1.8384000062943,-36.243012024643
1.8408000469208,-36.100999615395
1.8431999683380,-35.955725335336
1.8456000089645,-35.807333247194
1.8480000495911,-35.656089981165
1.8503999710083,-35.502399138217
1.8528000116348,-35.346798498748
1.8552000522614,-35.189951287814
1.8575999736786,-35.032635709087
1.8600000143051,-34.875731331216
1.8624000549316,-34.720200904116
1.8647999763489,-34.567070466633
1.8672000169754,-34.417411845911
1.8696000576019,-34.272321004606
1.8719999790192,-34.132904425991
1.8744000196457,-34.000265031769
1.8767999410629,-33.875489624039
1.8791999816895,-33.759638901160
1.8816000223160,-33.653740780805
1.8839999437332,-33.558789622756
1.8863999843597,-33.475741536113
1.8888000249863,-33.405516229492
1.8911999464035,-33.348997215758
1.8935999870300,-33.307038986534
1.8960000276566,-33.280468941016
1.8983999490738,-33.270092783430
1.9007999897003,-33.276704592686
1.9032000303268,-33.301088588779
1.9055999517441,-33.344032488971
1.9079999923706,-33.406333605959
1.9104000329971,-33.488808938382
1.9127999544144,-33.592302153684
1.9151999950409,-33.717704011081
1.9176000356674,-33.865952377659
1.9199999570847,-34.038056790450
1.9223999977112,-34.235104619559
1.9248000383377,-34.458288248345
1.9271999597549,-34.708919534607
1.9296000003815,-34.988457030950
1.9320000410080,-35.298531277817
1.9343999624252,-35.640984958491
1.9368000030518,-36.017907393019
1.9392000436783,-36.431691555564
1.9415999650955,-36.885088831486
1.9440000057220,-37.381290645821
1.9464000463486,-37.924016999943
1.9487999677658,-38.517629260507
1.9512000083923,-39.167265394235
1.9536000490189,-39.878998956843
1.9559999704361,-40.660004090569
1.9584000110626,-41.518701661493
1.9608000516891,-42.464783666513
1.9631999731064,-43.508872562810
1.9656000137329,-44.661219835711
1.9680000543594,-45.927946979313
1.9703999757767,-47.301346934798
1.9728000164032,-48.736949859435
1.9752000570297,-50.108255319016
1.9775999784470,-51.156696511699
1.9800000190735,-51.554913214003
1.9823999404907,-51.183811987086
1.9847999811172,-50.272003126846
1.9872000217438,-49.144671608933
1.9895999431610,-48.011021561741
1.9919999837875,-46.961910833977
1.9944000244141,-46.024903778983
1.9967999458313,-45.201054225226
1.9991999864578,-44.482035848022
2.0016000270844,-43.857134066031
2.0039999485016,-43.315864336129
2.0064001083374,-42.848823736533
2.0088000297546,-42.447850244490
2.0111999511719,-42.105930313109
2.0136001110077,-41.817031963349
2.0160000324249,-41.575930911652
2.0183999538422,-41.378052016141
2.0208001136780,-41.219331940441
2.0232000350952,-41.096108442038
2.0255999565125,-41.005020118277
2.0280001163483,-40.942939902166
2.0304000377655,-40.906899108514
2.0327999591827,-40.894051967193
2.0352001190186,-40.901629208909
2.0376000404358,-40.926919591546
