frequency,refcoef
0.60000002384186,-57.674031558483
0.60240000486374,-58.348337393461
0.60479998588562,-59.202049582728
0.60720002651215,-60.284181216295
0.60960000753403,-61.670493433534
0.61199998855591,-63.484419739729
0.61440002918243,-65.934444793111
0.61680001020432,-69.316437403169
0.61919999122620,-72.946186812148
0.62159997224808,-71.422342566548
0.62400001287460,-67.075722519771
0.62639999389648,-63.601839693045
0.62879997491837,-60.945341953689
0.63120001554489,-58.829633510933
0.63359999656677,-57.083799007267
0.63599997758865,-55.605589761047
0.63840001821518,-54.330714263691
0.64079999923706,-53.216546180111
0.64319998025894,-52.233489805092
0.64560002088547,-51.360177394864
0.64800000190735,-50.580647438366
0.65039998292923,-49.882611705699
0.65280002355576,-49.256336703864
0.65520000457764,-48.693889476697
0.65759998559952,-48.188610166418
0.66000002622604,-47.734727552690
0.66240000724792,-47.327057311247
0.66479998826981,-46.960774523139
0.66720002889633,-46.631206449934
0.66960000991821,-46.333669441398
0.67199999094009,-46.063323187067
0.67439997196198,-45.815044558651
0.67680001258850,-45.583345899313
0.67919999361038,-45.362323445469
0.68159997463226,-45.145677799844
0.68400001525879,-44.926809822955
0.68639999628067,-44.699014358848
0.68879997730255,-44.455776446015
0.69120001792908,-44.191144381952
0.69359999895096,-43.900149834532
0.69599997997284,-43.579208953017
0.69840002059937,-43.226411230234
0.70080000162125,-42.841652885223
0.70319998264313,-42.426572027580
0.70560002326965,-41.984295747490
0.70800000429153,-41.519064187351
0.71039998531342,-41.035790193174
0.71280002593994,-40.539639991990
0.71520000696182,-40.035682606918
0.71759998798370,-39.528625888761
0.72000002861023,-39.022656771771
0.72240000963211,-38.521357159349
0.72479999065399,-38.027684946060
0.72719997167587,-37.543999539370
0.72960001230240,-37.072109171988
0.73199999332428,-36.613328733946
0.73439997434616,-36.168544602522
0.73680001497269,-35.738274746038
0.73919999599457,-35.322716031266
0.74159997701645,-34.921798729296
0.74400001764297,-34.535216385347
0.74639999866486,-34.162468964250
0.74879997968674,-33.802875969973
0.75120002031326,-33.455615471412
0.75360000133514,-33.119728368778
0.75599998235703,-32.794149217497
0.75840002298355,-32.477713674847
0.76080000400543,-32.169182299429
0.76319998502731,-31.867257084107
0.76560002565384,-31.570602736841
0.76800000667572,-31.277867569038
0.77039998769760,-30.987710390844
0.77280002832413,-30.698831758016
0.77520000934601,-30.409993513217
0.77759999036789,-30.120057466055
0.77999997138977,-29.828009799154
0.78240001201630,-29.532983738193
0.78479999303818,-29.234289220629
0.78719997406006,-28.931423219771
0.78960001468658,-28.624082646304
0.79199999570847,-28.312165221411
0.79439997673035,-27.995763972831
0.79680001735687,-27.675157403215
0.79919999837875,-27.350789851946
0.80159997940063,-27.023245977220
0.80400002002716,-26.693227934195
0.80640000104904,-26.361524063416
0.80879998207092,-26.028984036475
0.81120002269745,-25.696489690936
0.81360000371933,-25.364930798323
0.81599998474121,-25.035187519380
0.81840002536774,-24.708107568936
0.82080000638962,-24.384499222042
0.82319998741150,-24.065114520916
0.82560002803802,-23.750646134032
0.82800000905991,-23.441718775766
0.83039999008179,-23.138895629448
0.83279997110367,-22.842668306697
0.83520001173019,-22.553463874911
0.83759999275208,-22.271645705171
0.83999997377396,-21.997517224565
0.84240001440048,-21.731326981750
0.84479999542236,-21.473267838972
0.84719997644424,-21.223487301857
0.84960001707077,-20.982086973103
0.85199999809265,-20.749127926584
0.85439997911453,-20.524637007277
0.85680001974106,-20.308605914795
0.85920000076294,-20.100998387434
0.86159998178482,-19.901752443785
0.86400002241135,-19.710781435701
0.86640000343323,-19.527980772294
0.86879998445511,-19.353226591997
0.87120002508163,-19.186380651017
0.87360000610352,-19.027291020689
0.87599998712540,-18.875797542650
0.87840002775192,-18.731727810641
0.88080000877380,-18.594905576475
0.88319998979568,-18.465149331108
0.88559997081757,-18.342274408199
0.88800001144409,-18.226094506830
0.89039999246597,-18.116422749301
0.89279997348785,-18.013076015429
0.89520001411438,-17.915872912381
0.89759999513626,-17.824638573452
0.89999997615814,-17.739200661684
0.90240001678467,-17.659396366415
0.90479999780655,-17.585070820752
0.90719997882843,-17.516076971725
0.90960001945496,-17.452277252822
0.91200000047684,-17.393546502858
0.91439998149872,-17.339766811173
0.91680002212524,-17.290833430391
0.91920000314713,-17.246650631387
0.92159998416901,-17.207135421103
0.92400002479553,-17.172212648700
0.92640000581741,-17.141817245174
0.92879998683929,-17.115892802394
0.93120002746582,-17.094391810735
0.93360000848770,-17.077271605899
0.93599998950958,-17.064494471605
0.93839997053146,-17.056026688071
0.94080001115799,-17.051835870140
0.94319999217987,-17.051889367475
0.94559997320175,-17.056152190343
0.94800001382828,-17.064585256582
0.95039999485016,-17.077142570089
0.95279997587204,-17.093770505465
0.95520001649857,-17.114402243362
0.95759999752045,-17.138960161396
0.95999997854233,-17.167349633065
0.96240001916885,-17.199460795766
0.96480000019073,-17.235161267432
0.96719998121262,-17.274298084026
0.96960002183914,-17.316697849354
0.97200000286102,-17.362158854744
0.97439998388290,-17.410457271086
0.97680002450943,-17.461341188645
0.97920000553131,-17.514533158889
0.98159998655319,-17.569727274857
0.98400002717972,-17.626592577019
0.98640000820160,-17.684776028527
0.98879998922348,-17.743896810673
0.99119997024536,-17.803558769829
0.99360001087189,-17.863346583813
0.99599999189377,-17.922833895692
0.99839997291565,-17.981583927649
1.0008000135422,-18.039160411222
1.0032000541687,-18.095128564454
1.0055999755859,-18.149065287637
1.0080000162125,-18.200563532947
1.0104000568390,-18.249240358278
1.0127999782562,-18.294743886925
1.0152000188828,-18.336758095096
1.0176000595093,-18.375011162001
1.0199999809265,-18.409278363998
1.0224000215530,-18.439385994216
1.0247999429703,-18.465215377906
1.0271999835968,-18.486702386096
1.0296000242233,-18.503838862586
1.0319999456406,-18.516669877889
1.0343999862671,-18.525292431378
1.0368000268936,-18.529849536207
1.0391999483109,-18.530524119305
1.0415999889374,-18.527539057925
1.0440000295639,-18.521142500875
1.0463999509811,-18.511608791697
1.0487999916077,-18.499226509810
1.0512000322342,-18.484294983630
1.0535999536514,-18.467116181684
1.0559999942780,-18.447992707660
1.0584000349045,-18.427217209161
1.0607999563217,-18.405075461186
1.0631999969482,-18.381835917978
1.0656000375748,-18.357751208150
1.0679999589920,-18.333058508986
1.0703999996185,-18.307971710802
1.0728000402451,-18.282686895282
1.0751999616623,-18.257381277031
1.0776000022888,-18.232212791224
1.0800000429153,-18.207321303331
1.0823999643326,-18.182830406819
1.0848000049591,-18.158850613000
1.0872000455856,-18.135478323829
1.0895999670029,-18.112801034578
1.0920000076294,-18.090894713102
1.0944000482559,-18.069832699146
1.0967999696732,-18.049678881318
1.0992000102997,-18.030497047303
1.1016000509262,-18.012346450909
1.1039999723434,-17.995287602268
1.1064000129700,-17.979379764790
1.1088000535965,-17.964682475683
1.1111999750137,-17.951257491417
1.1136000156403,-17.939166542172
1.1160000562668,-17.928473992982
1.1183999776840,-17.919242713298
1.1208000183105,-17.911537673305
1.1232000589371,-17.905419996014
1.1255999803543,-17.900953846242
1.1280000209808,-17.898196808450
1.1303999423981,-17.897204313489
1.1327999830246,-17.898027625461
1.1352000236511,-17.900712409759
1.1375999450684,-17.905295627595
1.1399999856949,-17.911806540144
1.1424000263214,-17.920271474483
1.1447999477386,-17.930699465780
1.1471999883652,-17.943095812643
1.1496000289917,-17.957451969365
1.1519999504089,-17.973751979201
1.1543999910355,-17.991967373888
1.1568000316620,-18.012061178678
1.1591999530792,-18.033984319530
1.1615999937057,-18.057684917091
1.1640000343323,-18.083094948924
1.1663999557495,-18.110144584811
1.1687999963760,-18.138757157486
1.1712000370026,-18.168851021514
1.1735999584198,-18.200341008095
1.1759999990463,-18.233142163846
1.1784000396729,-18.267167363453
1.1807999610901,-18.302332320645
1.1832000017166,-18.338555891884
1.1856000423431,-18.375761827667
1.1879999637604,-18.413877829343
1.1904000043869,-18.452843520000
1.1928000450134,-18.492603112025
1.1951999664307,-18.533111329533
1.1976000070572,-18.574333359815
1.2000000476837,-18.616243874377
1.2023999691010,-18.658829535664
1.2048000097275,-18.702087024477
1.2072000503540,-18.746022289565
1.2095999717712,-18.790652560769
1.2120000123978,-18.836002786795
1.2144000530243,-18.882106891554
1.2167999744415,-18.929004201878
1.2192000150681,-18.976740990308
1.2216000556946,-19.025366598911
1.2239999771118,-19.074935668264
1.2264000177383,-19.125500733751
1.2288000583649,-19.177117431628
1.2311999797821,-19.229839801646
1.2336000204086,-19.283718662628
1.2359999418259,-19.338804103490
1.2383999824524,-19.395140286087
1.2408000230789,-19.452768885683
1.2431999444962,-19.511725031854
1.2455999851227,-19.572039841227
1.2480000257492,-19.633739405606
1.2503999471664,-19.696846615205
1.2527999877930,-19.761377523010
1.2552000284195,-19.827347274261
1.2575999498367,-19.894766663568
1.2599999904633,-19.963644423875
1.2624000310898,-20.033989108517
1.2647999525070,-20.105809886380
1.2671999931335,-20.179116062726
1.2696000337601,-20.253919716758
1.2719999551773,-20.330233782018
1.2743999958038,-20.408079350845
1.2768000364304,-20.487478955984
1.2791999578476,-20.568459953342
1.2815999984741,-20.651057046124
1.2840000391006,-20.735308967346
1.2863999605179,-20.821259811656
1.2888000011444,-20.908959919225
1.2912000417709,-20.998461581384
1.2935999631882,-21.089820951032
1.2960000038147,-21.183096625012
1.2984000444412,-21.278346327194
1.3007999658585,-21.375629184056
1.3032000064850,-21.474997172122
1.3056000471115,-21.576501798818
1.3079999685287,-21.680183741800
1.3104000091553,-21.786075134924
1.3128000497818,-21.894200608737
1.3151999711990,-22.004567242361
1.3176000118256,-22.117167304562
1.3200000524521,-22.231980359615
1.3223999738693,-22.348963650261
1.3248000144958,-22.468055956238
1.3272000551224,-22.589177176398
1.3295999765396,-22.712224401109
1.3320000171661,-22.837075828328
1.3344000577927,-22.963590087334
1.3367999792099,-23.091605460007
1.3392000198364,-23.220941644823
1.3415999412537,-23.351405166366
1.3439999818802,-23.482790038938
1.3464000225067,-23.614881069074
1.3487999439240,-23.747458112816
1.3511999845505,-23.880300487887
1.3536000251770,-24.013189419269
1.3559999465942,-24.145919797498
1.3583999872208,-24.278294849426
1.3608000278473,-24.410141043538
1.3631999492645,-24.541306638337
1.3655999898911,-24.671668003209
1.3680000305176,-24.801134383947
1.3703999519348,-24.929649315642
1.3727999925613,-25.057192316309
1.3752000331879,-25.183781896615
1.3775999546051,-25.309474177848
1.3799999952316,-25.434361994359
1.3824000358582,-25.558571800668
1.3847999572754,-25.682261370478
1.3871999979019,-25.805616655669
1.3896000385284,-25.928843630612
1.3919999599457,-26.052164186926
1.3944000005722,-26.175812714230
1.3968000411987,-26.300025131096
1.3991999626160,-26.425035062667
1.4016000032425,-26.551068109300
1.4040000438690,-26.678334527083
1.4063999652863,-26.807024895658
1.4088000059128,-26.937303636124
1.4112000465393,-27.069306650382
1.4135999679565,-27.203137140157
1.4160000085831,-27.338866271746
1.4184000492096,-27.476525069095
1.4207999706268,-27.616112114332
1.4232000112534,-27.757586691666
1.4256000518799,-27.900879283484
1.4279999732971,-28.045886308794
1.4304000139236,-28.192479202384
1.4328000545502,-28.340507645813
1.4351999759674,-28.489807901754
1.4376000165939,-28.640206314588
1.4400000572205,-28.791527592487
1.4423999786377,-28.943605909145
1.4448000192642,-29.096288351983
1.4471999406815,-29.249444859225
1.4495999813080,-29.402974319962
1.4520000219345,-29.556811282356
1.4543999433517,-29.710932585039
1.4567999839783,-29.865357438333
1.4592000246048,-30.020152675298
1.4615999460220,-30.175430398226
1.4639999866486,-30.331346153406
1.4664000272751,-30.488096059288
1.4687999486923,-30.645906503621
1.4711999893188,-30.805032546526
1.4736000299454,-30.965739845586
1.4759999513626,-31.128297110882
1.4783999919891,-31.292964254138
1.4808000326157,-31.459971826495
1.4831999540329,-31.629514455133
1.4855999946594,-31.801726392643
1.4880000352859,-31.976670292546
1.4903999567032,-32.154320030451
1.4927999973297,-32.334546059590
1.4952000379562,-32.517097037415
1.4975999593735,-32.701590595720
1.5000000000000,-32.887499043903
1.5024000406265,-33.074141077072
1.5047999620438,-33.260680280981
1.5072000026703,-33.446122525802
1.5096000432968,-33.629324434301
1.5119999647141,-33.809006978622
1.5144000053406,-33.983785168375
1.5168000459671,-34.152193867650
1.5191999673843,-34.312736479237
1.5216000080109,-34.463933181986
1.5240000486374,-34.604384357691
1.5263999700546,-34.732830108018
1.5288000106812,-34.848206151831
1.5312000513077,-34.949707051464
1.5335999727249,-35.036825243997
1.5360000133514,-35.109376003305
1.5384000539780,-35.167510604551
1.5407999753952,-35.211701143230
1.5432000160217,-35.242710423234
1.5456000566483,-35.261553023060
1.5479999780655,-35.269424876031
1.5504000186920,-35.267654079788
1.5528000593185,-35.257622307067
1.5551999807358,-35.240721465668
1.5576000213623,-35.218282807765
1.5599999427795,-35.191541370163
1.5623999834061,-35.161601391240
1.5648000240326,-35.129412279827
1.5671999454498,-35.095750249052
1.5695999860764,-35.061215762357
1.5720000267029,-35.026240010486
1.5743999481201,-34.991087380084
1.5767999887466,-34.955873339765
1.5792000293732,-34.920582901463
1.5815999507904,-34.885093931566
1.5839999914169,-34.849200106105
1.5864000320435,-34.812641093922
1.5887999534607,-34.775126850731
1.5911999940872,-34.736367939779
1.5936000347137,-34.696100243643
1.5959999561310,-34.654112063702
1.5983999967575,-34.610259154529
1.6008000373840,-34.564488485113
1.6031999588013,-34.516843792870
1.6055999994278,-34.467475854568
1.6080000400543,-34.416643548942
1.6103999614716,-34.364707546966
1.6128000020981,-34.312122906771
1.6152000427246,-34.259423271252
1.6175999641418,-34.207211935186
1.6200000047684,-34.156132648774
1.6224000453949,-34.106856439117
1.6247999668121,-34.060062805814
1.6272000074387,-34.016417581117
1.6296000480652,-33.976551446451
1.6319999694824,-33.941052878662
1.6344000101089,-33.910441849806
1.6368000507355,-33.885166593311
1.6391999721527,-33.865586051714
1.6416000127792,-33.851964644925
1.6440000534058,-33.844465145781
1.6463999748230,-33.843139535126
1.6488000154495,-33.847934022900
1.6512000560760,-33.858677966391
1.6535999774933,-33.875089025993
1.6560000181198,-33.896780753725
1.6584000587463,-33.923256558544
1.6607999801636,-33.953928351255
1.6632000207901,-33.988122267882
1.6655999422073,-34.025092708562
1.6679999828339,-34.064038187269
1.6704000234604,-34.104125172566
1.6727999448776,-34.144511215140
1.6751999855042,-34.184369274437
1.6776000261307,-34.222914009652
1.6799999475479,-34.259433110072
1.6823999881744,-34.293309119020
1.6848000288010,-34.324051666826
1.6871999502182,-34.351306998888
1.6895999908447,-34.374878765051
1.6920000314713,-34.394735722823
1.6943999528885,-34.411006925251
1.6967999935150,-34.423976312439
1.6992000341415,-34.434067074968
1.7015999555588,-34.441817887263
1.7039999961853,-34.447857273419
1.7064000368118,-34.452870979937
1.7087999582291,-34.457569154256
1.7111999988556,-34.462653779055
1.7136000394821,-34.468778105123
1.7159999608994,-34.476525140915
1.7184000015259,-34.486366794871
1.7208000421524,-34.498642594640
1.7231999635696,-34.513533833900
1.7256000041962,-34.531042797908
1.7280000448227,-34.550974633522
1.7303999662399,-34.572924965237
1.7328000068665,-34.596278105384
1.7352000474930,-34.620198316967
1.7375999689102,-34.643642003262
1.7400000095367,-34.665370470060
1.7424000501633,-34.683977438802
1.7447999715805,-34.697930251183
1.7472000122070,-34.705612362779
1.7496000528336,-34.705390947882
1.7519999742508,-34.695684065322
1.7544000148773,-34.675044164954
1.7568000555038,-34.642224077182
1.7591999769211,-34.596261295505
1.7616000175476,-34.536531749256
1.7640000581741,-34.462787543735
1.7663999795914,-34.375189772814
1.7688000202179,-34.274288525218
1.7711999416351,-34.160994584518
1.7735999822617,-34.036538052937
1.7760000228882,-33.902393124373
1.7783999443054,-33.760207062175
1.7807999849319,-33.611722907095
1.7832000255585,-33.458707717346
1.7855999469757,-33.302889389109
1.7879999876022,-33.145898312977
1.7904000282288,-32.989227544031
1.7927999496460,-32.834203755435
1.7951999902725,-32.681960216871
1.7976000308990,-32.533433197028
1.7999999523163,-32.389347813481
1.8023999929428,-32.250229621390
1.8048000335693,-32.116399016629
1.8071999549866,-31.987989533945
1.8095999956131,-31.864953651842
1.8120000362396,-31.747078010918
1.8143999576569,-31.633998618420
1.8167999982834,-31.525220302134
1.8192000389099,-31.420133776748
1.8215999603271,-31.318037606598
1.8240000009537,-31.218166884549
1.8264000415802,-31.119711698010
1.8287999629974,-31.021853511292
1.8312000036240,-30.923789855788
1.8336000442505,-30.824768091424
1.8359999656677,-30.724108610828
1.8384000062943,-30.621242641023
1.8408000469208,-30.515730285950
1.8431999683380,-30.407282073919
1.8456000089645,-30.295775950201
1.8480000495911,-30.181262676364
1.8503999710083,-30.063970565244
1.8528000116348,-29.944297039279
1.8552000522614,-29.822797691435
1.8575999736786,-29.700173170311
1.8600000143051,-29.577241076284
1.8624000549316,-29.454922320715
1.8647999763489,-29.334205893094
1.8672000169754,-29.216135952440
1.8696000576019,-29.101782503299
1.8719999790192,-28.992221712863
1.8744000196457,-28.888521425332
1.8767999410629,-28.791726881950
1.8791999816895,-28.702847762509
1.8816000223160,-28.622850229273
1.8839999437332,-28.552655685201
1.8863999843597,-28.493131603511
1.8888000249863,-28.445097685656
1.8911999464035,-28.409320788862
1.8935999870300,-28.386520015339
1.8960000276566,-28.377371650764
1.8983999490738,-28.382506385391
1.9007999897003,-28.402521274280
1.9032000303268,-28.437980144727
1.9055999517441,-28.489418182454
1.9079999923706,-28.557345204054
1.9104000329971,-28.642253836697
1.9127999544144,-28.744619039139
1.9151999950409,-28.864904735836
1.9176000356674,-29.003567989009
1.9199999570847,-29.161057713370
1.9223999977112,-29.337822369430
1.9248000383377,-29.534309210201
1.9271999597549,-29.750967813339
1.9296000003815,-29.988248483125
1.9320000410080,-30.246606123269
1.9343999624252,-30.526493920442
1.9368000030518,-30.828369592813
1.9392000436783,-31.152684375272
1.9415999650955,-31.499883611172
1.9440000057220,-31.870397418059
1.9464000463486,-32.264630389366
1.9487999677658,-32.682950610378
1.9512000083923,-33.125668902291
1.9536000490189,-33.593020108361
1.9559999704361,-34.085133448617
1.9584000110626,-34.601990990577
1.9608000516891,-35.143386420039
1.9631999731064,-35.708868262504
1.9656000137329,-36.297668486887
1.9680000543594,-36.908623209565
1.9703999757767,-37.540086688069
1.9728000164032,-38.189829751652
1.9752000570297,-38.854950940425
1.9775999784470,-39.531800073348
1.9800000190735,-40.215941521724
1.9823999404907,-40.902182604017
1.9847999811172,-41.584700817626
1.9872000217438,-42.257281585377
1.9895999431610,-42.913683865497
1.9919999837875,-43.548082039543
1.9944000244141,-44.155515154374
1.9967999458313,-44.732196615749
1.9991999864578,-45.275550904695
2.0016000270844,-45.783850795877
2.0039999485016,-46.255388725210
2.0064001083374,-46.687234002898
2.0088000297546,-47.073745309462
2.0111999511719,-47.405140420451
2.0136001110077,-47.666646100319
2.0160000324249,-47.838951017074
2.0183999538422,-47.900702742847
2.0208001136780,-47.833161540616
2.0232000350952,-47.625899358609
2.0255999565125,-47.281031587511
2.0280001163483,-46.813703328950
2.0304000377655,-46.248564752609
2.0327999591827,-45.614227442946
2.0352001190186,-44.938262401330
2.0376000404358,-44.244137725292
