frequency,refcoef
0.60000002384186,-56.173342211286
0.60240000486374,-56.254767365218
0.60479998588562,-56.368695907620
0.60720002651215,-56.498026498069
0.60960000753403,-56.619393687715
0.61199998855591,-56.702770029497
0.61440002918243,-56.713154602400
0.61680001020432,-56.615471233691
0.61919999122620,-56.382470820202
0.62159997224808,-56.002738931850
0.62400001287460,-55.484346481537
0.62639999389648,-54.851714774225
0.62879997491837,-54.137779010750
0.63120001554489,-53.375894979475
0.63359999656677,-52.594599173736
0.63599997758865,-51.815643065331
0.63840001821518,-51.054219402644
0.64079999923706,-50.320144136002
0.64319998025894,-49.619213445278
0.64560002088547,-48.954376186838
0.64800000190735,-48.326629314881
0.65039998292923,-47.735649852778
0.65280002355576,-47.180229676335
0.65520000457764,-46.658559451559
0.65759998559952,-46.168410250638
0.66000002622604,-45.707251251907
0.66240000724792,-45.272316324520
0.66479998826981,-44.860653622554
0.66720002889633,-44.469158913826
0.66960000991821,-44.094604344038
0.67199999094009,-43.733674438974
0.67439997196198,-43.383008403170
0.67680001258850,-43.039261109269
0.67919999361038,-42.699173401512
0.68159997463226,-42.359656172854
0.68400001525879,-42.017885130472
0.68639999628067,-41.671399174817
0.68879997730255,-41.318181912106
0.69120001792908,-40.956738318476
0.69359999895096,-40.586133399585
0.69599997997284,-40.206010200780
0.69840002059937,-39.816560147557
0.70080000162125,-39.418473753619
0.70319998264313,-39.012856148136
0.70560002326965,-38.601128902810
0.70800000429153,-38.184927599656
0.71039998531342,-37.765998991499
0.71280002593994,-37.346108710213
0.71520000696182,-36.926963178065
0.71759998798370,-36.510150584115
0.72000002861023,-36.097094863534
0.72240000963211,-35.689027246911
0.72479999065399,-35.286975190880
0.72719997167587,-34.891750387063
0.72960001230240,-34.503955166891
0.73199999332428,-34.123993752623
0.73439997434616,-33.752076864996
0.73680001497269,-33.388246467036
0.73919999599457,-33.032385426058
0.74159997701645,-32.684235648466
0.74400001764297,-32.343416293314
0.74639999866486,-32.009443021619
0.74879997968674,-31.681746887041
0.75120002031326,-31.359686630163
0.75360000133514,-31.042574717168
0.75599998235703,-30.729693625656
0.75840002298355,-30.420311563089
0.76080000400543,-30.113705655151
0.76319998502731,-29.809177148692
0.76560002565384,-29.506069681446
0.76800000667572,-29.203783324603
0.77039998769760,-28.901792765293
0.77280002832413,-28.599651226041
0.77520000934601,-28.297009579545
0.77759999036789,-27.993611025736
0.77999997138977,-27.689298855957
0.78240001201630,-27.384016733588
0.78479999303818,-27.077799681234
0.78719997406006,-26.770771906289
0.78960001468658,-26.463133557196
0.79199999570847,-26.155149690671
0.79439997673035,-25.847141559141
0.79680001735687,-25.539471143280
0.79919999837875,-25.232526495223
0.80159997940063,-24.926712264296
0.80400002002716,-24.622439310631
0.80640000104904,-24.320110522977
0.80879998207092,-24.020115712636
0.81120002269745,-23.722823178142
0.81360000371933,-23.428573515147
0.81599998474121,-23.137677435917
0.81840002536774,-22.850409446326
0.82080000638962,-22.567015211973
0.82319998741150,-22.287695209969
0.82560002803802,-22.012623780563
0.82800000905991,-21.741939746206
0.83039999008179,-21.475747976607
0.83279997110367,-21.214126667050
0.83520001173019,-20.957130310615
0.83759999275208,-20.704788994865
0.83999997377396,-20.457112822262
0.84240001440048,-20.214097387087
0.84479999542236,-19.975727599077
0.84719997644424,-19.741975258361
0.84960001707077,-19.512809643980
0.85199999809265,-19.288196431113
0.85439997911453,-19.068099090433
0.85680001974106,-18.852484216457
0.85920000076294,-18.641321244550
0.86159998178482,-18.434585254900
0.86400002241135,-18.232261260730
0.86640000343323,-18.034336575874
0.86879998445511,-17.840812183061
0.87120002508163,-17.651693984756
0.87360000610352,-17.466999144868
0.87599998712540,-17.286752369882
0.87840002775192,-17.110987372635
0.88080000877380,-16.939744506469
0.88319998979568,-16.773068551881
0.88559997081757,-16.611012121955
0.88800001144409,-16.453631294797
0.89039999246597,-16.300983267437
0.89279997348785,-16.153128731107
0.89520001411438,-16.010123846481
0.89759999513626,-15.872027659002
0.89999997615814,-15.738893945824
0.90240001678467,-15.610771157065
0.90479999780655,-15.487703148425
0.90719997882843,-15.369729225742
0.90960001945496,-15.256875429036
0.91200000047684,-15.149163832944
0.91439998149872,-15.046604246073
0.91680002212524,-14.949197221093
0.91920000314713,-14.856932669310
0.92159998416901,-14.769789287982
0.92400002479553,-14.687734229235
0.92640000581741,-14.610722617822
0.92879998683929,-14.538701816292
0.93120002746582,-14.471602329196
0.93360000848770,-14.409349212830
0.93599998950958,-14.351854472122
0.93839997053146,-14.299020864794
0.94080001115799,-14.250743501975
0.94319999217987,-14.206907590293
0.94559997320175,-14.167392961607
0.94800001382828,-14.132072150113
0.95039999485016,-14.100812367953
0.95279997587204,-14.073477618716
0.95520001649857,-14.049927883259
0.95759999752045,-14.030024393978
0.95999997854233,-14.013622597147
0.96240001916885,-14.000581399231
0.96480000019073,-13.990762141607
0.96719998121262,-13.984026765630
0.96960002183914,-13.980240241931
0.97200000286102,-13.979271284732
0.97439998388290,-13.980993519971
0.97680002450943,-13.985285536030
0.97920000553131,-13.992032089981
0.98159998655319,-14.001118715069
0.98400002717972,-14.012440627749
0.98640000820160,-14.025895536019
0.98879998922348,-14.041385075266
0.99119997024536,-14.058815817428
0.99360001087189,-14.078097260605
0.99599999189377,-14.099138382770
0.99839997291565,-14.121853082205
1.0008000135422,-14.146154286740
1.0032000541687,-14.171954441219
1.0055999755859,-14.199164120663
1.0080000162125,-14.227692979653
1.0104000568390,-14.257446501535
1.0127999782562,-14.288327354325
1.0152000188828,-14.320235279540
1.0176000595093,-14.353063405228
1.0199999809265,-14.386703960691
1.0224000215530,-14.421042448791
1.0247999429703,-14.455963468464
1.0271999835968,-14.491346493595
1.0296000242233,-14.527070404660
1.0319999456406,-14.563010306492
1.0343999862671,-14.599044998625
1.0368000268936,-14.635052851385
1.0391999483109,-14.670913873721
1.0415999889374,-14.706514283934
1.0440000295639,-14.741743347341
1.0463999509811,-14.776499280744
1.0487999916077,-14.810686297655
1.0512000322342,-14.844220094075
1.0535999536514,-14.877021770345
1.0559999942780,-14.909026840723
1.0584000349045,-14.940178606305
1.0607999563217,-14.970431058247
1.0631999969482,-14.999749213699
1.0656000375748,-15.028106399437
1.0679999589920,-15.055484281206
1.0703999996185,-15.081873724892
1.0728000402451,-15.107266876055
1.0751999616623,-15.131664593087
1.0776000022888,-15.155068616584
1.0800000429153,-15.177481141526
1.0823999643326,-15.198905024905
1.0848000049591,-15.219341327100
1.0872000455856,-15.238787111310
1.0895999670029,-15.257235455440
1.0920000076294,-15.274674713303
1.0944000482559,-15.291088591118
1.0967999696732,-15.306453518658
1.0992000102997,-15.320744471090
1.1016000509262,-15.333927624317
1.1039999723434,-15.345969284481
1.1064000129700,-15.356831165509
1.1088000535965,-15.366476012913
1.1111999750137,-15.374866045593
1.1136000156403,-15.381969394744
1.1160000562668,-15.387755066764
1.1183999776840,-15.392201830765
1.1208000183105,-15.395295257518
1.1232000589371,-15.397030397994
1.1255999803543,-15.397415476671
1.1280000209808,-15.396469098713
1.1303999423981,-15.394222707601
1.1327999830246,-15.390719767291
1.1352000236511,-15.386018954409
1.1375999450684,-15.380188570580
1.1399999856949,-15.373306564606
1.1424000263214,-15.365459594440
1.1447999477386,-15.356744444145
1.1471999883652,-15.347259745358
1.1496000289917,-15.337106970252
1.1519999504089,-15.326389553698
1.1543999910355,-15.315207675114
1.1568000316620,-15.303653966718
1.1591999530792,-15.291817659002
1.1615999937057,-15.279777487855
1.1640000343323,-15.267602536234
1.1663999557495,-15.255345958163
1.1687999963760,-15.243052845295
1.1712000370026,-15.230751557675
1.1735999584198,-15.218457264035
1.1759999990463,-15.206170321407
1.1784000396729,-15.193881586152
1.1807999610901,-15.181568031588
1.1832000017166,-15.169198178061
1.1856000423431,-15.156732669383
1.1879999637604,-15.144126935779
1.1904000043869,-15.131334178623
1.1928000450134,-15.118307491599
1.1951999664307,-15.105002193078
1.1976000070572,-15.091380056111
1.2000000476837,-15.077412142957
1.2023999691010,-15.063077868566
1.2048000097275,-15.048374175943
1.2072000503540,-15.033308858459
1.2095999717712,-15.017908389775
1.2120000123978,-15.002214575101
1.2144000530243,-14.986290337037
1.2167999744415,-14.970213159743
1.2192000150681,-14.954080497596
1.2216000556946,-14.938004767850
1.2239999771118,-14.922112777235
1.2264000177383,-14.906545148460
1.2288000583649,-14.891452964178
1.2311999797821,-14.876994822928
1.2336000204086,-14.863338458643
1.2359999418259,-14.850650890639
1.2383999824524,-14.839103484322
1.2408000230789,-14.828862974263
1.2431999444962,-14.820094218597
1.2455999851227,-14.812954262711
1.2480000257492,-14.807594020212
1.2503999471664,-14.804151572919
1.2527999877930,-14.802756240384
1.2552000284195,-14.803525321735
1.2575999498367,-14.806563053198
1.2599999904633,-14.811959546768
1.2624000310898,-14.819792506646
1.2647999525070,-14.830128179515
1.2671999931335,-14.843017669812
1.2696000337601,-14.858505251668
1.2719999551773,-14.876620102419
1.2743999958038,-14.897386096346
1.2768000364304,-14.920815881923
1.2791999578476,-14.946920248703
1.2815999984741,-14.975698433944
1.2840000391006,-15.007152833290
1.2863999605179,-15.041281190946
1.2888000011444,-15.078080409650
1.2912000417709,-15.117545395146
1.2935999631882,-15.159677448944
1.2960000038147,-15.204477314337
1.2984000444412,-15.251947780166
1.3007999658585,-15.302097194276
1.3032000064850,-15.354934858899
1.3056000471115,-15.410475069532
1.3079999685287,-15.468732368393
1.3104000091553,-15.529727032687
1.3128000497818,-15.593474292869
1.3151999711990,-15.659997169532
1.3176000118256,-15.729309507699
1.3200000524521,-15.801426572076
1.3223999738693,-15.876358085665
1.3248000144958,-15.954105775795
1.3272000551224,-16.034668282891
1.3295999765396,-16.118030188742
1.3320000171661,-16.204167319751
1.3344000577927,-16.293042667736
1.3367999792099,-16.384609437890
1.3392000198364,-16.478802613354
1.3415999412537,-16.575544415741
1.3439999818802,-16.674743890251
1.3464000225067,-16.776294529833
1.3487999439240,-16.880075094128
1.3511999845505,-16.985954832696
1.3536000251770,-17.093785662130
1.3559999465942,-17.203417563954
1.3583999872208,-17.314687252757
1.3608000278473,-17.427427425154
1.3631999492645,-17.541471744135
1.3655999898911,-17.656649360966
1.3680000305176,-17.772798385738
1.3703999519348,-17.889758449838
1.3727999925613,-18.007383269939
1.3752000331879,-18.125535159349
1.3775999546051,-18.244093908330
1.3799999952316,-18.362953279097
1.3824000358582,-18.482025747585
1.3847999572754,-18.601242704375
1.3871999979019,-18.720552996900
1.3896000385284,-18.839922334038
1.3919999599457,-18.959336064757
1.3944000005722,-19.078788621211
1.3968000411987,-19.198288947241
1.3991999626160,-19.317852338064
1.4016000032425,-19.437498067345
1.4040000438690,-19.557245007988
1.4063999652863,-19.677107108363
1.4088000059128,-19.797090784825
1.4112000465393,-19.917185765086
1.4135999679565,-20.037369401107
1.4160000085831,-20.157596699633
1.4184000492096,-20.277799096480
1.4207999706268,-20.397886506869
1.4232000112534,-20.517741676893
1.4256000518799,-20.637223439005
1.4279999732971,-20.756170153944
1.4304000139236,-20.874395717058
1.4328000545502,-20.991702744442
1.4351999759674,-21.107879225878
1.4376000165939,-21.222708037746
1.4400000572205,-21.335976244689
1.4423999786377,-21.447475636541
1.4448000192642,-21.557018671006
1.4471999406815,-21.664439083587
1.4495999813080,-21.769599994357
1.4520000219345,-21.872405018631
1.4543999433517,-21.972795518418
1.4567999839783,-22.070761376662
1.4592000246048,-22.166338353545
1.4615999460220,-22.259610864102
1.4639999866486,-22.350706211481
1.4664000272751,-22.439795495300
1.4687999486923,-22.527086376602
1.4711999893188,-22.612812273733
1.4736000299454,-22.697231912358
1.4759999513626,-22.780613727050
1.4783999919891,-22.863225967427
1.4808000326157,-22.945331936454
1.4831999540329,-23.027177149988
1.4855999946594,-23.108981430981
1.4880000352859,-23.190926151897
1.4903999567032,-23.273157078670
1.4927999973297,-23.355770190134
1.4952000379562,-23.438809226590
1.4975999593735,-23.522269181546
1.5000000000000,-23.606088892807
1.5024000406265,-23.690159510520
1.5047999620438,-23.774322219344
1.5072000026703,-23.858377620662
1.5096000432968,-23.942094072212
1.5119999647141,-24.025211460975
1.5144000053406,-24.107459084625
1.5168000459671,-24.188563203702
1.5191999673843,-24.268257520003
1.5216000080109,-24.346298903721
1.5240000486374,-24.422477032687
1.5263999700546,-24.496626152597
1.5288000106812,-24.568633487085
1.5312000513077,-24.638445010369
1.5335999727249,-24.706071384111
1.5360000133514,-24.771589337814
1.5384000539780,-24.835137990936
1.5407999753952,-24.896916069130
1.5432000160217,-24.957174561960
1.5456000566483,-25.016205872429
1.5479999780655,-25.074331783298
1.5504000186920,-25.131891526139
1.5528000593185,-25.189229104720
1.5551999807358,-25.246673285723
1.5576000213623,-25.304530605824
1.5599999427795,-25.363066689068
1.5623999834061,-25.422499950340
1.5648000240326,-25.482983435376
1.5671999454498,-25.544605265824
1.5695999860764,-25.607376372588
1.5720000267029,-25.671229967956
1.5743999481201,-25.736020439527
1.5767999887466,-25.801524124810
1.5792000293732,-25.867447085593
1.5815999507904,-25.933430102365
1.5839999914169,-25.999060495260
1.5864000320435,-26.063887216236
1.5887999534607,-26.127434333829
1.5911999940872,-26.189222892910
1.5936000347137,-26.248784053509
1.5959999561310,-26.305682260250
1.5983999967575,-26.359535181928
1.6008000373840,-26.410026186922
1.6031999588013,-26.456923338650
1.6055999994278,-26.500088002598
1.6080000400543,-26.539481091554
1.6103999614716,-26.575165787415
1.6128000020981,-26.607302595860
1.6152000427246,-26.636144489686
1.6175999641418,-26.662018679578
1.6200000047684,-26.685315782533
1.6224000453949,-26.706465200823
1.6247999668121,-26.725918090456
1.6272000074387,-26.744123972531
1.6296000480652,-26.761510142083
1.6319999694824,-26.778461219687
1.6344000101089,-26.795299075664
1.6368000507355,-26.812273787753
1.6391999721527,-26.829541181957
1.6416000127792,-26.847163556731
1.6440000534058,-26.865100686374
1.6463999748230,-26.883209282919
1.6488000154495,-26.901244782983
1.6512000560760,-26.918873940322
1.6535999774933,-26.935681001636
1.6560000181198,-26.951187782525
1.6584000587463,-26.964869870817
1.6607999801636,-26.976184560517
1.6632000207901,-26.984586656319
1.6655999422073,-26.989564836003
1.6679999828339,-26.990658930567
1.6704000234604,-26.987490015368
1.6727999448776,-26.979777826777
1.6751999855042,-26.967361851107
1.6776000261307,-26.950206889754
1.6799999475479,-26.928413043335
1.6823999881744,-26.902210759599
1.6848000288010,-26.871953896534
1.6871999502182,-26.838104633251
1.6895999908447,-26.801213006033
1.6920000314713,-26.761896022787
1.6943999528885,-26.720808443935
1.6967999935150,-26.678618119588
1.6992000341415,-26.635981360239
1.7015999555588,-26.593513112518
1.7039999961853,-26.551773875225
1.7064000368118,-26.511238492996
1.7087999582291,-26.472289024488
1.7111999988556,-26.435200714207
1.7136000394821,-26.400130145519
1.7159999608994,-26.367118577756
1.7184000015259,-26.336081443678
1.7208000421524,-26.306820218392
1.7231999635696,-26.279025254529
1.7256000041962,-26.252288036913
1.7280000448227,-26.226118175045
1.7303999662399,-26.199957725247
1.7328000068665,-26.173207761749
1.7352000474930,-26.145246714312
1.7375999689102,-26.115463124064
1.7400000095367,-26.083276621665
1.7424000501633,-26.048167239881
1.7447999715805,-26.009697645173
1.7472000122070,-25.967537524374
1.7496000528336,-25.921476496346
1.7519999742508,-25.871438076044
1.7544000148773,-25.817480888896
1.7568000555038,-25.759799846574
1.7591999769211,-25.698712414421
1.7616000175476,-25.634650773490
1.7640000581741,-25.568136936560
1.7663999795914,-25.499756990611
1.7688000202179,-25.430141967662
1.7711999416351,-25.359937726116
1.7735999822617,-25.289777915672
1.7760000228882,-25.220259542584
1.7783999443054,-25.151922271564
1.7807999849319,-25.085226757100
1.7832000255585,-25.020537978759
1.7855999469757,-24.958114156588
1.7879999876022,-24.898096196735
1.7904000282288,-24.840504587038
1.7927999496460,-24.785235405433
1.7951999902725,-24.732060924439
1.7976000308990,-24.680643396081
1.7999999523163,-24.630537261852
1.8023999929428,-24.581207804486
1.8048000335693,-24.532048422534
1.8071999549866,-24.482402855389
1.8095999956131,-24.431588969955
1.8120000362396,-24.378931018719
1.8143999576569,-24.323782528323
1.8167999982834,-24.265561451277
1.8192000389099,-24.203777431475
1.8215999603271,-24.138055811482
1.8240000009537,-24.068162517149
1.8264000415802,-23.994017444774
1.8287999629974,-23.915705052798
1.8312000036240,-23.833476007974
1.8336000442505,-23.747741969036
1.8359999656677,-23.659060891661
1.8384000062943,-23.568124373735
1.8408000469208,-23.475728846944
1.8431999683380,-23.382753918799
1.8456000089645,-23.290132283145
1.8480000495911,-23.198821374666
1.8503999710083,-23.109784329063
1.8528000116348,-23.023956374194
1.8552000522614,-22.942228008024
1.8575999736786,-22.865428994528
1.8600000143051,-22.794305658988
1.8624000549316,-22.729511259865
1.8647999763489,-22.671599585533
1.8672000169754,-22.621010411009
1.8696000576019,-22.578065047027
1.8719999790192,-22.542961796155
1.8744000196457,-22.515772897499
1.8767999410629,-22.496439528148
1.8791999816895,-22.484770123086
1.8816000223160,-22.480440741612
1.8839999437332,-22.482995083719
1.8863999843597,-22.491845027001
1.8888000249863,-22.506277128322
1.8911999464035,-22.525459451363
1.8935999870300,-22.548448227589
1.8960000276566,-22.574206574246
1.8983999490738,-22.601620247521
1.9007999897003,-22.629522946479
1.9032000303268,-22.656726094559
1.9055999517441,-22.682046096978
1.9079999923706,-22.704352443129
1.9104000329971,-22.722595232586
1.9127999544144,-22.735854102033
1.9151999950409,-22.743370955445
1.9176000356674,-22.744585975835
1.9199999570847,-22.739160985165
1.9223999977112,-22.727000674708
1.9248000383377,-22.708253040059
1.9271999597549,-22.683311773397
1.9296000003815,-22.652795891478
1.9320000410080,-22.617525278585
1.9343999624252,-22.578490754929
1.9368000030518,-22.536819595355
1.9392000436783,-22.493732320450
1.9415999650955,-22.450511743353
1.9440000057220,-22.408462315936
1.9464000463486,-22.368876239143
1.9487999677658,-22.333018485745
1.9512000083923,-22.302091655862
1.9536000490189,-22.277231041581
1.9559999704361,-22.259485050941
1.9584000110626,-22.249808922563
1.9608000516891,-22.249065708863
1.9631999731064,-22.258020296707
1.9656000137329,-22.277340495052
1.9680000543594,-22.307603322915
1.9703999757767,-22.349291091103
1.9728000164032,-22.402802597536
1.9752000570297,-22.468452825413
1.9775999784470,-22.546476676745
1.9800000190735,-22.637036162043
1.9823999404907,-22.740218291439
1.9847999811172,-22.856042889505
1.9872000217438,-22.984463012533
1.9895999431610,-23.125365988790
1.9919999837875,-23.278576939400
1.9944000244141,-23.443860699729
1.9967999458313,-23.620918663845
1.9991999864578,-23.809392882907
2.0016000270844,-24.008868138541
2.0039999485016,-24.218871016317
2.0064001083374,-24.438869374122
2.0088000297546,-24.668275740546
2.0111999511719,-24.906448021930
2.0136001110077,-25.152690774502
2.0160000324249,-25.406255702124
2.0183999538422,-25.666345567135
2.0208001136780,-25.932113228471
2.0232000350952,-26.202662807435
2.0255999565125,-26.477052638892
2.0280001163483,-26.754290913456
2.0304000377655,-27.033332655055
2.0327999591827,-27.313081152013
2.0352001190186,-27.592376745771
2.0376000404358,-27.869989617271
