frequency,refcoef
0.60000002384186,-55.578932698773
0.60240000486374,-55.871015835836
0.60479998588562,-56.228772334359
0.60720002651215,-56.641180683279
0.60960000753403,-57.086334960629
0.61199998855591,-57.525029597655
0.61440002918243,-57.894536500681
0.61680001020432,-58.109248548761
0.61919999122620,-58.078977567157
0.62159997224808,-57.746799893599
0.62400001287460,-57.121431600383
0.62639999389648,-56.271463810563
0.62879997491837,-55.287787464695
0.63120001554489,-54.249661905979
0.63359999656677,-53.211979182165
0.63599997758865,-52.207377323617
0.63840001821518,-51.252896399718
0.64079999923706,-50.355982152271
0.64319998025894,-49.518603600290
0.64560002088547,-48.739788854292
0.64800000190735,-48.017066366821
0.65039998292923,-47.347282425275
0.65280002355576,-46.727024020937
0.65520000457764,-46.152839340810
0.65759998559952,-45.621326033694
0.66000002622604,-45.129168260620
0.66240000724792,-44.673127243089
0.66479998826981,-44.250011258262
0.66720002889633,-43.856644931831
0.66960000991821,-43.489831861620
0.67199999094009,-43.146316210397
0.67439997196198,-42.822759459621
0.67680001258850,-42.515720661476
0.67919999361038,-42.221657784815
0.68159997463226,-41.936940126868
0.68400001525879,-41.657890908692
0.68639999628067,-41.380852415598
0.68879997730255,-41.102273849957
0.69120001792908,-40.818821612593
0.69359999895096,-40.527503898107
0.69599997997284,-40.225794396316
0.69840002059937,-39.911749297223
0.70080000162125,-39.584091804723
0.70319998264313,-39.242253681084
0.70560002326965,-38.886383778459
0.70800000429153,-38.517290202574
0.71039998531342,-38.136352366362
0.71280002593994,-37.745400799941
0.71520000696182,-37.346579633542
0.71759998798370,-36.942212848497
0.72000002861023,-36.534670948358
0.72240000963211,-36.126273664638
0.72479999065399,-35.719202050039
0.72719997167587,-35.315435457939
0.72960001230240,-34.916719534725
0.73199999332428,-34.524537785772
0.73439997434616,-34.140108795051
0.73680001497269,-33.764391212435
0.73919999599457,-33.398086472016
0.74159997701645,-33.041657319235
0.74400001764297,-32.695340671221
0.74639999866486,-32.359165598484
0.74879997968674,-32.032965052902
0.75120002031326,-31.716391048940
0.75360000133514,-31.408934510194
0.75599998235703,-31.109931846355
0.75840002298355,-30.818582113159
0.76080000400543,-30.533963458154
0.76319998502731,-30.255047121705
0.76560002565384,-29.980716873476
0.76800000667572,-29.709788210508
0.77039998769760,-29.441038090375
0.77280002832413,-29.173224607092
0.77520000934601,-28.905119097210
0.77759999036789,-28.635542319175
0.77999997138977,-28.363392326942
0.78240001201630,-28.087681010537
0.78479999303818,-27.807561963755
0.78719997406006,-27.522359572953
0.78960001468658,-27.231589756573
0.79199999570847,-26.934975830397
0.79439997673035,-26.632449193669
0.79680001735687,-26.324153581291
0.79919999837875,-26.010429097877
0.80159997940063,-25.691796426308
0.80400002002716,-25.368931409754
0.80640000104904,-25.042637496267
0.80879998207092,-24.713814509901
0.81120002269745,-24.383430531079
0.81360000371933,-24.052487224503
0.81599998474121,-23.722001035334
0.81840002536774,-23.392971451862
0.82080000638962,-23.066367691640
0.82319998741150,-22.743110114407
0.82560002803802,-22.424062176449
0.82800000905991,-22.110015959171
0.83039999008179,-21.801695887412
0.83279997110367,-21.499747994523
0.83520001173019,-21.204749259545
0.83759999275208,-20.917196583873
0.83999997377396,-20.637522436763
0.84240001440048,-20.366089182283
0.84479999542236,-20.103195304297
0.84719997644424,-19.849080956083
0.84960001707077,-19.603928691676
0.85199999809265,-19.367872931914
0.85439997911453,-19.140996880602
0.85680001974106,-18.923340532183
0.85920000076294,-18.714902243341
0.86159998178482,-18.515641109804
0.86400002241135,-18.325482221742
0.86640000343323,-18.144314333532
0.86879998445511,-17.971994413143
0.87120002508163,-17.808347119123
0.87360000610352,-17.653173373732
0.87599998712540,-17.506240773891
0.87840002775192,-17.367291224107
0.88080000877380,-17.236042830760
0.88319998979568,-17.112184239622
0.88559997081757,-16.995384971979
0.88800001144409,-16.885288524692
0.89039999246597,-16.781517711993
0.89279997348785,-16.683674035175
0.89520001411438,-16.591340811651
0.89759999513626,-16.504086504206
0.89999997615814,-16.421462117597
0.90240001678467,-16.343009121607
0.90479999780655,-16.268261483612
0.90719997882843,-16.196746372612
0.90960001945496,-16.127990420252
0.91200000047684,-16.061523791752
0.91439998149872,-15.996889796213
0.91680002212524,-15.933638803379
0.91920000314713,-15.871345629798
0.92159998416901,-15.809603466910
0.92400002479553,-15.748043330955
0.92640000581741,-15.686321607407
0.92879998683929,-15.624142553411
0.93120002746582,-15.561247181704
0.93360000848770,-15.497425108783
0.93599998950958,-15.432516435486
0.93839997053146,-15.366408712474
0.94080001115799,-15.299042550145
0.94319999217987,-15.230408230434
0.94559997320175,-15.160542433397
0.94800001382828,-15.089532195220
0.95039999485016,-15.017503401323
0.95279997587204,-14.944620599533
0.95520001649857,-14.871082968670
0.95759999752045,-14.797116158353
0.95999997854233,-14.722971492548
0.96240001916885,-14.648912354079
0.96480000019073,-14.575219361937
0.96719998121262,-14.502173769228
0.96960002183914,-14.430060298679
0.97200000286102,-14.359159477574
0.97439998388290,-14.289743051698
0.97680002450943,-14.222071114218
0.97920000553131,-14.156387871693
0.98159998655319,-14.092918566158
0.98400002717972,-14.031869898314
0.98640000820160,-13.973424038264
0.98879998922348,-13.917739103672
0.99119997024536,-13.864949615033
0.99360001087189,-13.815162191706
0.99599999189377,-13.768460327809
0.99839997291565,-13.724899603340
1.0008000135422,-13.684508974595
1.0032000541687,-13.647293030124
1.0055999755859,-13.613233037028
1.0080000162125,-13.582283391902
1.0104000568390,-13.554377663577
1.0127999782562,-13.529427895803
1.0152000188828,-13.507325510713
1.0176000595093,-13.487944025440
1.0199999809265,-13.471140711208
1.0224000215530,-13.456757320368
1.0247999429703,-13.444623228655
1.0271999835968,-13.434556793926
1.0296000242233,-13.426367897636
1.0319999456406,-13.419863571248
1.0343999862671,-13.414841815576
1.0368000268936,-13.411105787128
1.0391999483109,-13.408455713044
1.0415999889374,-13.406697479048
1.0440000295639,-13.405644480088
1.0463999509811,-13.405117369069
1.0487999916077,-13.404948949939
1.0512000322342,-13.404984694388
1.0535999536514,-13.405085248734
1.0559999942780,-13.405125791540
1.0584000349045,-13.405001826878
1.0607999563217,-13.404623681659
1.0631999969482,-13.403923290698
1.0656000375748,-13.402850131349
1.0679999589920,-13.401371917907
1.0703999996185,-13.399474411708
1.0728000402451,-13.397159965211
1.0751999616623,-13.394446260732
1.0776000022888,-13.391366870441
1.0800000429153,-13.387965119752
1.0823999643326,-13.384295403718
1.0848000049591,-13.380419142418
1.0872000455856,-13.376405263741
1.0895999670029,-13.372326536182
1.0920000076294,-13.368255430831
1.0944000482559,-13.364265783904
1.0967999696732,-13.360427465719
1.0992000102997,-13.356806451097
1.1016000509262,-13.353462567446
1.1039999723434,-13.350449821306
1.1064000129700,-13.347811996534
1.1088000535965,-13.345583871163
1.1111999750137,-13.343789892380
1.1136000156403,-13.342446309651
1.1160000562668,-13.341554911691
1.1183999776840,-13.341110439474
1.1208000183105,-13.341095448682
1.1232000589371,-13.341482867046
1.1255999803543,-13.342238935432
1.1280000209808,-13.343320181149
1.1303999423981,-13.344676128358
1.1327999830246,-13.346252488801
1.1352000236511,-13.347988049829
1.1375999450684,-13.349821869982
1.1399999856949,-13.351689759308
1.1424000263214,-13.353529004617
1.1447999477386,-13.355275349187
1.1471999883652,-13.356869772602
1.1496000289917,-13.358258296583
1.1519999504089,-13.359387769539
1.1543999910355,-13.360215213921
1.1568000316620,-13.360701218602
1.1591999530792,-13.360813866753
1.1615999937057,-13.360531516661
1.1640000343323,-13.359836363568
1.1663999557495,-13.358718703789
1.1687999963760,-13.357177950766
1.1712000370026,-13.355218480200
1.1735999584198,-13.352850150403
1.1759999990463,-13.350090187745
1.1784000396729,-13.346956898510
1.1807999610901,-13.343474712022
1.1832000017166,-13.339669794592
1.1856000423431,-13.335568225611
1.1879999637604,-13.331197619042
1.1904000043869,-13.326584981197
1.1928000450134,-13.321755914171
1.1951999664307,-13.316732987268
1.1976000070572,-13.311538231759
1.2000000476837,-13.306188767217
1.2023999691010,-13.300699151861
1.2048000097275,-13.295081344913
1.2072000503540,-13.289343600301
1.2095999717712,-13.283491133493
1.2120000123978,-13.277530229808
1.2144000530243,-13.271460887050
1.2167999744415,-13.265287842341
1.2192000150681,-13.259012463537
1.2216000556946,-13.252639389654
1.2239999771118,-13.246176773894
1.2264000177383,-13.239636419705
1.2288000583649,-13.233034602207
1.2311999797821,-13.226395594391
1.2336000204086,-13.219749833367
1.2359999418259,-13.213138002298
1.2383999824524,-13.206608368642
1.2408000230789,-13.200220261558
1.2431999444962,-13.194043653859
1.2455999851227,-13.188159243404
1.2480000257492,-13.182659022420
1.2503999471664,-13.177646352974
1.2527999877930,-13.173233984033
1.2552000284195,-13.169545649768
1.2575999498367,-13.166714308241
1.2599999904633,-13.164880312982
1.2624000310898,-13.164192436293
1.2647999525070,-13.164804277930
1.2671999931335,-13.166875382850
1.2696000337601,-13.170568425707
1.2719999551773,-13.176046614071
1.2743999958038,-13.183475066875
1.2768000364304,-13.193018780388
1.2791999578476,-13.204836258192
1.2815999984741,-13.219087181893
1.2840000391006,-13.235922183889
1.2863999605179,-13.255488377825
1.2888000011444,-13.277923385925
1.2912000417709,-13.303355597875
1.2935999631882,-13.331907335033
1.2960000038147,-13.363687894343
1.2984000444412,-13.398797665932
1.3007999658585,-13.437322743810
1.3032000064850,-13.479340305507
1.3056000471115,-13.524912464121
1.3079999685287,-13.574091851860
1.3104000091553,-13.626917166785
1.3128000497818,-13.683415304261
1.3151999711990,-13.743599825432
1.3176000118256,-13.807473146911
1.3200000524521,-13.875025132313
1.3223999738693,-13.946233941458
1.3248000144958,-14.021070088565
1.3272000551224,-14.099488474239
1.3295999765396,-14.181439444323
1.3320000171661,-14.266860157192
1.3344000577927,-14.355682207164
1.3367999792099,-14.447828646348
1.3392000198364,-14.543215681076
1.3415999412537,-14.641753562961
1.3439999818802,-14.743348714428
1.3464000225067,-14.847901194238
1.3487999439240,-14.955310247991
1.3511999845505,-15.065470183472
1.3536000251770,-15.178273907159
1.3559999465942,-15.293615412851
1.3583999872208,-15.411384851530
1.3608000278473,-15.531474910303
1.3631999492645,-15.653776246381
1.3655999898911,-15.778183134168
1.3680000305176,-15.904588936483
1.3703999519348,-16.032889146753
1.3727999925613,-16.162979282444
1.3752000331879,-16.294758887990
1.3775999546051,-16.428124978110
1.3799999952316,-16.562977249014
1.3824000358582,-16.699214680901
1.3847999572754,-16.836738496758
1.3871999979019,-16.975446837889
1.3896000385284,-17.115237207909
1.3919999599457,-17.256008835722
1.3944000005722,-17.397654800504
1.3968000411987,-17.540068747209
1.3991999626160,-17.683141365651
1.4016000032425,-17.826760264933
1.4040000438690,-17.970810346511
1.4063999652863,-18.115173927964
1.4088000059128,-18.259731719284
1.4112000465393,-18.404361196303
1.4135999679565,-18.548938183378
1.4160000085831,-18.693338644413
1.4184000492096,-18.837438871935
1.4207999706268,-18.981114219216
1.4232000112534,-19.124244419489
1.4256000518799,-19.266712334911
1.4279999732971,-19.408403686972
1.4304000139236,-19.549210852230
1.4328000545502,-19.689034628617
1.4351999759674,-19.827782984498
1.4376000165939,-19.965371887404
1.4400000572205,-20.101728009958
1.4423999786377,-20.236787688119
1.4448000192642,-20.370499348590
1.4471999406815,-20.502821379303
1.4495999813080,-20.633720363348
1.4520000219345,-20.763176760903
1.4543999433517,-20.891178465536
1.4567999839783,-21.017718914013
1.4592000246048,-21.142801378209
1.4615999460220,-21.266432908052
1.4639999866486,-21.388626058422
1.4664000272751,-21.509394128239
1.4687999486923,-21.628751906684
1.4711999893188,-21.746713670795
1.4736000299454,-21.863289977608
1.4759999513626,-21.978491023699
1.4783999919891,-22.092322553854
1.4808000326157,-22.204783845988
1.4831999540329,-22.315871853679
1.4855999946594,-22.425576506676
1.4880000352859,-22.533885588055
1.4903999567032,-22.640782339001
1.4927999973297,-22.746250042445
1.4952000379562,-22.850267262287
1.4975999593735,-22.952815257402
1.5000000000000,-23.053877613604
1.5024000406265,-23.153441500499
1.5047999620438,-23.251498347623
1.5072000026703,-23.348047375213
1.5096000432968,-23.443098382677
1.5119999647141,-23.536668287219
1.5144000053406,-23.628783718869
1.5168000459671,-23.719483921390
1.5191999673843,-23.808819006197
1.5216000080109,-23.896846885076
1.5240000486374,-23.983638189141
1.5263999700546,-24.069266852978
1.5288000106812,-24.153814942379
1.5312000513077,-24.237370040725
1.5335999727249,-24.320017737724
1.5360000133514,-24.401844095920
1.5384000539780,-24.482930241313
1.5407999753952,-24.563351374757
1.5432000160217,-24.643172494580
1.5456000566483,-24.722446873584
1.5479999780655,-24.801215120435
1.5504000186920,-24.879499902721
1.5528000593185,-24.957310027130
1.5551999807358,-25.034633998559
1.5576000213623,-25.111444914758
1.5599999427795,-25.187698977905
1.5623999834061,-25.263335220992
1.5648000240326,-25.338280232067
1.5671999454498,-25.412447835207
1.5695999860764,-25.485743499235
1.5720000267029,-25.558069391012
1.5743999481201,-25.629323549472
1.5767999887466,-25.699407980263
1.5792000293732,-25.768229720310
1.5815999507904,-25.835706542436
1.5839999914169,-25.901771334718
1.5864000320435,-25.966372261706
1.5887999534607,-26.029475488236
1.5911999940872,-26.091071298696
1.5936000347137,-26.151171557781
1.5959999561310,-26.209808783757
1.5983999967575,-26.267040549782
1.6008000373840,-26.322939756241
1.6031999588013,-26.377600231756
1.6055999994278,-26.431129935093
1.6080000400543,-26.483644269321
1.6103999614716,-26.535265750019
1.6128000020981,-26.586117847577
1.6152000427246,-26.636317582433
1.6175999641418,-26.685974782944
1.6200000047684,-26.735183472985
1.6224000453949,-26.784018562063
1.6247999668121,-26.832532277423
1.6272000074387,-26.880751912196
1.6296000480652,-26.928673564895
1.6319999694824,-26.976265429398
1.6344000101089,-27.023466281255
1.6368000507355,-27.070181925023
1.6391999721527,-27.116294124027
1.6416000127792,-27.161656963664
1.6440000534058,-27.206104780161
1.6463999748230,-27.249455002740
1.6488000154495,-27.291515845812
1.6512000560760,-27.332090102230
1.6535999774933,-27.370985185194
1.6560000181198,-27.408015590086
1.6584000587463,-27.443014669271
1.6607999801636,-27.475837345510
1.6632000207901,-27.506366808765
1.6655999422073,-27.534519694163
1.6679999828339,-27.560247944711
1.6704000234604,-27.583542548408
1.6727999448776,-27.604430308805
1.6751999855042,-27.622978536776
1.6776000261307,-27.639281611167
1.6799999475479,-27.653469172348
1.6823999881744,-27.665688214853
1.6848000288010,-27.676105238090
1.6871999502182,-27.684891875800
1.6895999908447,-27.692217320106
1.6920000314713,-27.698244819372
1.6943999528885,-27.703118454125
1.6967999935150,-27.706954792158
1.6992000341415,-27.709841611494
1.7015999555588,-27.711824621680
1.7039999961853,-27.712907505994
1.7064000368118,-27.713047324039
1.7087999582291,-27.712153459402
1.7111999988556,-27.710089984249
1.7136000394821,-27.706672151143
1.7159999608994,-27.701677369522
1.7184000015259,-27.694849216901
1.7208000421524,-27.685901369661
1.7231999635696,-27.674533248442
1.7256000041962,-27.660434353049
1.7280000448227,-27.643303380752
1.7303999662399,-27.622853016653
1.7328000068665,-27.598822833375
1.7352000474930,-27.570997927821
1.7375999689102,-27.539209250173
1.7400000095367,-27.503349039033
1.7424000501633,-27.463371124330
1.7447999715805,-27.419302617453
1.7472000122070,-27.371237228998
1.7496000528336,-27.319334662247
1.7519999742508,-27.263819542261
1.7544000148773,-27.204970762142
1.7568000555038,-27.143111316568
1.7591999769211,-27.078602140300
1.7616000175476,-27.011823177250
1.7640000581741,-26.943164035896
1.7663999795914,-26.873010014800
1.7688000202179,-26.801733726426
1.7711999416351,-26.729673582165
1.7735999822617,-26.657136025351
1.7760000228882,-26.584373466635
1.7783999443054,-26.511588141378
1.7807999849319,-26.438919284795
1.7832000255585,-26.366443035283
1.7855999469757,-26.294169746075
1.7879999876022,-26.222045045490
1.7904000282288,-26.149951774676
1.7927999496460,-26.077715211784
1.7951999902725,-26.005108518653
1.7976000308990,-25.931862158571
1.7999999523163,-25.857673450836
1.8023999929428,-25.782219381182
1.8048000335693,-25.705165334415
1.8071999549866,-25.626186144056
1.8095999956131,-25.544970415624
1.8120000362396,-25.461243769508
1.8143999576569,-25.374777311531
1.8167999982834,-25.285399077156
1.8192000389099,-25.193008284724
1.8215999603271,-25.097577998420
1.8240000009537,-24.999166545560
1.8264000415802,-24.897917836481
1.8287999629974,-24.794060346731
1.8312000036240,-24.687905928846
1.8336000442505,-24.579841924236
1.8359999656677,-24.470327039661
1.8384000062943,-24.359880059074
1.8408000469208,-24.249067967353
1.8431999683380,-24.138496224872
1.8456000089645,-24.028798092545
1.8480000495911,-23.920619719805
1.8503999710083,-23.814612608866
1.8528000116348,-23.711423598620
1.8552000522614,-23.611683224199
1.8575999736786,-23.516005375055
1.8600000143051,-23.424970107539
1.8624000549316,-23.339127339954
1.8647999763489,-23.258991381170
1.8672000169754,-23.185036268598
1.8696000576019,-23.117695169368
1.8719999790192,-23.057359088413
1.8744000196457,-23.004375459712
1.8767999410629,-22.959050548432
1.8791999816895,-22.921647667549
1.8816000223160,-22.892386784619
1.8839999437332,-22.871451823964
1.8863999843597,-22.858981626712
1.8888000249863,-22.855080416242
1.8911999464035,-22.859813665342
1.8935999870300,-22.873207471342
1.8960000276566,-22.895253558916
1.8983999490738,-22.925908870910
1.9007999897003,-22.965093221011
1.9032000303268,-23.012694081964
1.9055999517441,-23.068560470483
1.9079999923706,-23.132513195727
1.9104000329971,-23.204330905455
1.9127999544144,-23.283764055637
1.9151999950409,-23.370526357512
1.9176000356674,-23.464294901244
1.9199999570847,-23.564712010177
1.9223999977112,-23.671389488608
1.9248000383377,-23.783896993380
1.9271999597549,-23.901775076941
1.9296000003815,-24.024525459036
1.9320000410080,-24.151620247128
1.9343999624252,-24.282494365023
1.9368000030518,-24.416554780674
1.9392000436783,-24.553177222753
1.9415999650955,-24.691713251909
1.9440000057220,-24.831488574415
1.9464000463486,-24.971810117990
1.9487999677658,-25.111971058536
1.9512000083923,-25.251254657111
1.9536000490189,-25.388938884953
1.9559999704361,-25.524308740962
1.9584000110626,-25.656656603899
1.9608000516891,-25.785294839296
1.9631999731064,-25.909563731988
1.9656000137329,-26.028836040329
1.9680000543594,-26.142532977384
1.9703999757767,-26.250122127797
1.9728000164032,-26.351135119722
1.9752000570297,-26.445168153083
1.9775999784470,-26.531890988011
1.9800000190735,-26.611049352288
1.9823999404907,-26.682469864615
1.9847999811172,-26.746064680766
1.9872000217438,-26.801822724897
1.9895999431610,-26.849817890532
1.9919999837875,-26.890201584559
1.9944000244141,-26.923196415002
1.9967999458313,-26.949092266414
1.9991999864578,-26.968239117639
2.0016000270844,-26.981037576004
2.0039999485016,-26.987928942550
2.0064001083374,-26.989386818711
2.0088000297546,-26.985908632101
2.0111999511719,-26.978002895505
2.0136001110077,-26.966181828927
2.0160000324249,-26.950950465177
2.0183999538422,-26.932799680973
2.0208001136780,-26.912197612476
2.0232000350952,-26.889582458394
2.0255999565125,-26.865356532696
2.0280001163483,-26.839881680157
2.0304000377655,-26.813472673386
2.0327999591827,-26.786396735705
2.0352001190186,-26.758870410651
2.0376000404358,-26.731056592236
